{
  "AcquisitionMatrixPE": 108,
  "AcquisitionNumber": 1,
  "AcquisitionTime": "13:46:39.510000",
  "BandwidthPerPixelPhaseEncode": 15.964,
  "BaseResolution": 108,
  "BodyPartExamined": "BRAIN",
  "ConsistencyInfo": "N4_VE11C_LATEST_20160120",
  "ConversionSoftware": "dcm2niix",
  "ConversionSoftwareVersion": "v1.0.20180622 GCC6.3.0",
  "DerivedVendorReportedEchoSpacing": 0.000580009,
  "DeviceSerialNumber": "66054",
  "DwellTime": 2.1e-06,
  "EchoTime": 0.031,
  "EchoTrainLength": 95,
  "EffectiveEchoSpacing": 0.000580009,
  "FlipAngle": 64,
  "ImageOrientationPatientDICOM": [0.995637, 0.092866, -0.00905878, -0.0906101, 0.939123, -0.331418],
  "ImageType": [
    "ORIGINAL",
    "PRIMARY",
    "M",
    "ND",
    "MOSAIC"
],
  "InPlanePhaseEncodingDirectionDICOM": "COL",
  "InstitutionAddress": "Chemin_des_Mines_9_Geneve_District_CH_1211",
  "InstitutionName": "Fondation_Campus_Biotech_Geneva",
  "InstitutionalDepartmentName": "Department",
  "MRAcquisitionType": "2D",
  "MagneticFieldStrength": 3,
  "Manufacturer": "Siemens",
  "ManufacturersModelName": "Prisma",
  "Modality": "MR",
  "MultibandAccelerationFactor": 4,
  "PartialFourier": 0.875,
  "PatientPosition": "HFS",
  "PercentPhaseFOV": 100,
  "PhaseEncodingDirection": "j-",
  "PhaseEncodingSteps": 95,
  "PhaseResolution": 1,
  "PixelBandwidth": 2205,
  "ProcedureStepDescription": "J.DRM_Michael",
  "ProtocolName": "Run2_bold_s4_TR1.28",
  "PulseSequenceDetails": "%SiemensSeq%_ep2d_bold",
  "ReceiveCoilActiveElements": "HC1-7;NC1,2",
  "ReceiveCoilName": "HeadNeck_64",
  "ReconMatrixPE": 108,
  "RepetitionTime": 1.28,
  "SAR": 0.077232,
  "ScanOptions": "PFP_FS",
  "ScanningSequence": "EP",
  "SequenceName": "_epfid2d1_108",
  "SequenceVariant": "SK",
  "SeriesDescription": "Run2_bold_s4_TR1.28",
  "SeriesNumber": 6,
  "ShimSetting": [-1264, -11677, 6487, 683, 98, -92, 62, 45],
  "SliceThickness": 2,
  "SliceTiming": [0.945, 0, 0.63, 0.08, 0.71, 0.1575, 0.7875, 0.2375, 0.8675, 0.395, 1.025, 0.4725, 1.1025, 0.5525, 1.1825, 0.315, 0.945, 0, 0.63, 0.08, 0.71, 0.1575, 0.7875, 0.2375, 0.8675, 0.395, 1.025, 0.4725, 1.1025, 0.5525, 1.1825, 0.315, 0.945, 0, 0.63, 0.08, 0.71, 0.1575, 0.7875, 0.2375, 0.8675, 0.395, 1.025, 0.4725, 1.1025, 0.5525, 1.1825, 0.315, 0.945, 0, 0.63, 0.08, 0.71, 0.1575, 0.7875, 0.2375, 0.8675, 0.395, 1.025, 0.4725, 1.1025, 0.5525, 1.1825, 0.315],
  "SoftwareVersions": "syngo_MR_E11",
  "SpacingBetweenSlices": 2,
  "StationName": "AWP66054",
  "TaskName": "main",
  "TotalReadoutTime": 0.0620609,
  "TxRefAmp": 302.621,
  "dcmmeta_affine": [
    [-1.9820560216903687, -0.18038123846054077, 0.04454023391008377, 111.79391479492188],
    [-0.1848720759153366, 1.8695505857467651, -0.66158527135849, -53.654300689697266],
    [-0.018033673986792564, 0.659766674041748, 1.8868812322616577, -84.34577941894531],
    [0.0, 0.0, 0.0, 1.0]
],
  "dcmmeta_reorient_transform": [
    [0.0, -1.0, 0.0, 107.0],
    [1.0, 0.0, 0.0, 0.0],
    [0.0, 0.0, 1.0, 0.0],
    [0.0, 0.0, 0.0, 1.0]
],
  "dcmmeta_shape": [108, 108, 64, 373],
  "dcmmeta_slice_dim": 2,
  "dcmmeta_version": 0.6,
  "global": {
    "const": {
      "AccessionNumber": "",
      "AcquisitionMatrix": [108, 0, 0, 108],
      "AngioFlag": "N",
      "BitsAllocated": 16,
      "BitsStored": 12,
      "BodyPartExamined": "BRAIN",
      "Columns": 864,
      "EchoNumbers": 1,
      "EchoTime": 31.0,
      "EchoTrainLength": 95,
      "FlipAngle": 64.0,
      "HighBit": 11,
      "ImageOrientationPatient": [0.99563740917737, 0.09286596810967, -0.0090587755036, -0.0906101059237, 0.93912306732364, -0.3314176717152],
      "ImagePositionPatient": [-773.52618091762, -922.95937390876, 242.45778294553],
      "ImageType": [
        "ORIGINAL",
        "PRIMARY",
        "M",
        "ND",
        "MOSAIC"
],
      "ImagedNucleus": "1H",
      "ImagingFrequency": 123.257389,
      "InPlanePhaseEncodingDirection": "COL",
      "MRAcquisitionType": "2D",
      "MagneticFieldStrength": 3.0,
      "Manufacturer": "SIEMENS",
      "ManufacturerModelName": "Prisma",
      "Modality": "MR",
      "NumberOfAverages": 1.0,
      "NumberOfPhaseEncodingSteps": 95,
      "PercentPhaseFieldOfView": 100.0,
      "PercentSampling": 100.0,
      "PerformedProcedureStepStartTime": "133400.902000",
      "PhotometricInterpretation": "MONOCHROME2",
      "PixelBandwidth": 2205.0,
      "PixelRepresentation": 0,
      "PixelSpacing": [1.990740776062, 1.990740776062],
      "PositionReferenceIndicator": "",
      "ProtocolName": "Run2_bold_s4_TR1.28",
      "RepetitionTime": 1280.0,
      "Rows": 864,
      "SAR": 0.07723202796058,
      "SamplesPerPixel": 1,
      "ScanOptions": [
        "PFP",
        "FS"
],
      "ScanningSequence": "EP",
      "SequenceName": "*epfid2d1_108",
      "SequenceVariant": "SK",
      "SeriesDescription": "Run2_bold_s4_TR1.28",
      "SeriesNumber": 6,
      "SeriesTime": "134707.082000",
      "SliceLocation": -59.337127596907,
      "SliceThickness": 2.0,
      "SmallestImagePixelValue": 0,
      "SoftwareVersions": "syngo MR E11",
      "SpacingBetweenSlices": 1.9999999533462,
      "SpecificCharacterSet": "ISO_IR 100",
      "StudyID": "1",
      "StudyTime": "133400.831000",
      "TransmitCoilName": "Body",
      "VariableFlipAngleFlag": "N",
      "WindowCenterWidthExplanation": "Algo1",
      "dBdt": 0.0},
    "slices": {}
  },
  "time": {
    "samples": {
      "AcquisitionNumber": [1, 2, 3, 4, 5, 6, 7, 8, 9, 10, 11, 12, 13, 14, 15, 16, 17, 18, 19, 20, 21, 22, 23, 24, 25, 26, 27, 28, 29, 30, 31, 32, 33, 34, 35, 36, 37, 38, 39, 40, 41, 42, 43, 44, 45, 46, 47, 48, 49, 50, 51, 52, 53, 54, 55, 56, 57, 58, 59, 60, 61, 62, 63, 64, 65, 66, 67, 68, 69, 70, 71, 72, 73, 74, 75, 76, 77, 78, 79, 80, 81, 82, 83, 84, 85, 86, 87, 88, 89, 90, 91, 92, 93, 94, 95, 96, 97, 98, 99, 100, 101, 102, 103, 104, 105, 106, 107, 108, 109, 110, 111, 112, 113, 114, 115, 116, 117, 118, 119, 120, 121, 122, 123, 124, 125, 126, 127, 128, 129, 130, 131, 132, 133, 134, 135, 136, 137, 138, 139, 140, 141, 142, 143, 144, 145, 146, 147, 148, 149, 150, 151, 152, 153, 154, 155, 156, 157, 158, 159, 160, 161, 162, 163, 164, 165, 166, 167, 168, 169, 170, 171, 172, 173, 174, 175, 176, 177, 178, 179, 180, 181, 182, 183, 184, 185, 186, 187, 188, 189, 190, 191, 192, 193, 194, 195, 196, 197, 198, 199, 200, 201, 202, 203, 204, 205, 206, 207, 208, 209, 210, 211, 212, 213, 214, 215, 216, 217, 218, 219, 220, 221, 222, 223, 224, 225, 226, 227, 228, 229, 230, 231, 232, 233, 234, 235, 236, 237, 238, 239, 240, 241, 242, 243, 244, 245, 246, 247, 248, 249, 250, 251, 252, 253, 254, 255, 256, 257, 258, 259, 260, 261, 262, 263, 264, 265, 266, 267, 268, 269, 270, 271, 272, 273, 274, 275, 276, 277, 278, 279, 280, 281, 282, 283, 284, 285, 286, 287, 288, 289, 290, 291, 292, 293, 294, 295, 296, 297, 298, 299, 300, 301, 302, 303, 304, 305, 306, 307, 308, 309, 310, 311, 312, 313, 314, 315, 316, 317, 318, 319, 320, 321, 322, 323, 324, 325, 326, 327, 328, 329, 330, 331, 332, 333, 334, 335, 336, 337, 338, 339, 340, 341, 342, 343, 344, 345, 346, 347, 348, 349, 350, 351, 352, 353, 354, 355, 356, 357, 358, 359, 360, 361, 362, 363, 364, 365, 366, 367, 368, 369, 370, 371, 372, 373],
      "AcquisitionTime": ["134639.510000", "134640.790000", "134642.070000", "134643.350000", "134644.630000", "134645.910000", "134647.190000", "134648.470000", "134649.750000", "134651.030000", "134652.310000", "134653.590000", "134654.870000", "134656.150000", "134657.430000", "134658.710000", "134659.990000", "134701.270000", "134702.550000", "134703.830000", "134705.110000", "134706.390000", "134707.670000", "134708.950000", "134710.230000", "134711.510000", "134712.790000", "134714.070000", "134715.350000", "134716.630000", "134717.910000", "134719.190000", "134720.470000", "134721.750000", "134723.030000", "134724.310000", "134725.590000", "134726.870000", "134728.150000", "134729.430000", "134730.710000", "134731.990000", "134733.270000", "134734.550000", "134735.830000", "134737.110000", "134738.390000", "134739.670000", "134740.950000", "134742.230000", "134743.510000", "134744.790000", "134746.070000", "134747.350000", "134748.630000", "134749.910000", "134751.190000", "134752.470000", "134753.750000", "134755.030000", "134756.310000", "134757.590000", "134758.870000", "134800.150000", "134801.430000", "134802.710000", "134803.990000", "134805.270000", "134806.550000", "134807.830000", "134809.110000", "134810.390000", "134811.670000", "134812.950000", "134814.230000", "134815.510000", "134816.790000", "134818.070000", "134819.350000", "134820.630000", "134821.910000", "134823.190000", "134824.470000", "134825.750000", "134827.030000", "134828.310000", "134829.590000", "134830.870000", "134832.150000", "134833.430000", "134834.710000", "134835.990000", "134837.270000", "134838.550000", "134839.830000", "134841.110000", "134842.390000", "134843.670000", "134844.950000", "134846.230000", "134847.510000", "134848.790000", "134850.070000", "134851.350000", "134852.630000", "134853.910000", "134855.190000", "134856.470000", "134857.750000", "134859.030000", "134900.310000", "134901.590000", "134902.870000", "134904.150000", "134905.430000", "134906.710000", "134907.990000", "134909.270000", "134910.550000", "134911.830000", "134913.110000", "134914.390000", "134915.670000", "134916.950000", "134918.230000", "134919.510000", "134920.790000", "134922.070000", "134923.350000", "134924.630000", "134925.910000", "134927.190000", "134928.470000", "134929.750000", "134931.030000", "134932.310000", "134933.590000", "134934.870000", "134936.150000", "134937.430000", "134938.710000", "134939.990000", "134941.270000", "134942.550000", "134943.830000", "134945.110000", "134946.390000", "134947.670000", "134948.950000", "134950.230000", "134951.510000", "134952.790000", "134954.070000", "134955.350000", "134956.630000", "134957.910000", "134959.190000", "135000.470000", "135001.750000", "135003.030000", "135004.310000", "135005.590000", "135006.870000", "135008.150000", "135009.430000", "135010.710000", "135011.990000", "135013.270000", "135014.550000", "135015.830000", "135017.110000", "135018.390000", "135019.670000", "135020.950000", "135022.230000", "135023.510000", "135024.790000", "135026.070000", "135027.350000", "135028.630000", "135029.910000", "135031.190000", "135032.470000", "135033.750000", "135035.030000", "135036.310000", "135037.590000", "135038.870000", "135040.150000", "135041.430000", "135042.710000", "135043.990000", "135045.270000", "135046.550000", "135047.830000", "135049.110000", "135050.390000", "135051.670000", "135052.950000", "135054.230000", "135055.510000", "135056.790000", "135058.070000", "135059.350000", "135100.630000", "135101.910000", "135103.190000", "135104.470000", "135105.750000", "135107.030000", "135108.310000", "135109.590000", "135110.870000", "135112.150000", "135113.430000", "135114.710000", "135115.990000", "135117.270000", "135118.550000", "135119.830000", "135121.110000", "135122.390000", "135123.670000", "135124.950000", "135126.230000", "135127.510000", "135128.790000", "135130.070000", "135131.350000", "135132.630000", "135133.910000", "135135.190000", "135136.470000", "135137.750000", "135139.030000", "135140.310000", "135141.590000", "135142.870000", "135144.150000", "135145.430000", "135146.710000", "135147.990000", "135149.270000", "135150.550000", "135151.830000", "135153.110000", "135154.390000", "135155.670000", "135156.950000", "135158.230000", "135159.510000", "135200.790000", "135202.070000", "135203.350000", "135204.630000", "135205.910000", "135207.190000", "135208.470000", "135209.750000", "135211.030000", "135212.310000", "135213.590000", "135214.870000", "135216.150000", "135217.430000", "135218.710000", "135219.990000", "135221.270000", "135222.550000", "135223.830000", "135225.110000", "135226.390000", "135227.670000", "135228.950000", "135230.230000", "135231.510000", "135232.790000", "135234.070000", "135235.350000", "135236.630000", "135237.910000", "135239.190000", "135240.470000", "135241.750000", "135243.030000", "135244.310000", "135245.590000", "135246.870000", "135248.150000", "135249.430000", "135250.710000", "135251.990000", "135253.270000", "135254.550000", "135255.830000", "135257.110000", "135258.390000", "135259.670000", "135300.950000", "135302.230000", "135303.510000", "135304.790000", "135306.070000", "135307.350000", "135308.630000", "135309.910000", "135311.190000", "135312.470000", "135313.750000", "135315.030000", "135316.310000", "135317.590000", "135318.870000", "135320.150000", "135321.430000", "135322.710000", "135323.990000", "135325.270000", "135326.550000", "135327.830000", "135329.110000", "135330.390000", "135331.670000", "135332.950000", "135334.230000", "135335.510000", "135336.790000", "135338.070000", "135339.350000", "135340.630000", "135341.910000", "135343.190000", "135344.470000", "135345.750000", "135347.030000", "135348.310000", "135349.590000", "135350.870000", "135352.150000", "135353.430000", "135354.710000", "135355.990000", "135357.270000", "135358.550000", "135359.830000", "135401.110000", "135402.390000", "135403.670000", "135404.950000", "135406.230000", "135407.510000", "135408.790000", "135410.070000", "135411.350000", "135412.630000", "135413.910000", "135415.190000", "135416.470000", "135417.750000", "135419.030000", "135420.310000", "135421.590000", "135422.870000", "135424.150000", "135425.430000", "135426.710000", "135427.990000", "135429.270000", "135430.550000", "135431.830000", "135433.110000", "135434.390000", "135435.670000"],
      "ContentTime": ["134707.088000", "134707.091000", "134707.094000", "134707.097000", "134707.100000", "134707.103000", "134707.106000", "134707.109000", "134707.112000", "134707.115000", "134707.118000", "134707.121000", "134707.123000", "134707.131000", "134707.140000", "134707.143000", "134707.145000", "134707.148000", "134707.151000", "134707.154000", "134707.157000", "134747.081000", "134747.084000", "134747.087000", "134747.090000", "134747.093000", "134747.096000", "134747.099000", "134747.102000", "134747.105000", "134747.108000", "134747.111000", "134747.114000", "134747.117000", "134747.120000", "134747.123000", "134747.126000", "134747.129000", "134747.132000", "134747.135000", "134747.138000", "134747.141000", "134747.144000", "134747.147000", "134747.150000", "134747.153000", "134747.156000", "134747.159000", "134747.161000", "134747.164000", "134747.167000", "134747.170000", "134827.081000", "134827.091000", "134827.094000", "134827.097000", "134827.100000", "134827.103000", "134827.106000", "134827.109000", "134827.112000", "134827.115000", "134827.118000", "134827.121000", "134827.123000", "134827.126000", "134827.129000", "134827.132000", "134827.135000", "134827.138000", "134827.141000", "134827.144000", "134827.147000", "134827.151000", "134827.154000", "134827.157000", "134827.160000", "134827.163000", "134827.166000", "134827.169000", "134827.172000", "134827.175000", "134827.179000", "134827.182000", "134907.080000", "134907.083000", "134907.086000", "134907.089000", "134907.092000", "134907.095000", "134907.097000", "134907.100000", "134907.103000", "134907.106000", "134907.109000", "134907.112000", "134907.115000", "134907.118000", "134907.121000", "134907.123000", "134907.126000", "134907.129000", "134907.146000", "134907.150000", "134907.152000", "134907.155000", "134907.158000", "134907.161000", "134907.164000", "134907.171000", "134907.174000", "134907.177000", "134907.180000", "134907.183000", "134907.186000", "134947.082000", "134947.085000", "134947.088000", "134947.091000", "134947.094000", "134947.097000", "134947.100000", "134947.103000", "134947.107000", "134947.110000", "134947.113000", "134947.115000", "134947.119000", "134947.122000", "134947.125000", "134947.128000", "134947.131000", "134947.133000", "134947.136000", "134947.139000", "134947.142000", "134947.145000", "134947.148000", "134947.151000", "134947.154000", "134947.157000", "134947.160000", "134947.163000", "134947.166000", "134947.169000", "134947.172000", "135027.081000", "135027.084000", "135027.087000", "135027.090000", "135027.093000", "135027.096000", "135027.099000", "135027.102000", "135027.104000", "135027.107000", "135027.110000", "135027.113000", "135027.116000", "135027.119000", "135027.122000", "135027.125000", "135027.127000", "135027.130000", "135027.133000", "135027.136000", "135027.139000", "135027.142000", "135027.145000", "135027.148000", "135027.151000", "135027.153000", "135027.156000", "135027.159000", "135027.162000", "135027.165000", "135027.168000", "135107.080000", "135107.083000", "135107.086000", "135107.089000", "135107.092000", "135107.095000", "135107.097000", "135107.100000", "135107.103000", "135107.106000", "135107.109000", "135107.112000", "135107.115000", "135107.118000", "135107.121000", "135107.124000", "135107.127000", "135107.129000", "135107.132000", "135107.135000", "135107.138000", "135107.141000", "135107.144000", "135107.147000", "135107.150000", "135107.153000", "135107.156000", "135107.159000", "135107.161000", "135107.164000", "135107.167000", "135107.170000", "135147.081000", "135147.084000", "135147.087000", "135147.090000", "135147.093000", "135147.096000", "135147.099000", "135147.102000", "135147.105000", "135147.108000", "135147.110000", "135147.113000", "135147.116000", "135147.119000", "135147.122000", "135147.125000", "135147.128000", "135147.131000", "135147.134000", "135147.137000", "135147.140000", "135147.144000", "135147.146000", "135147.149000", "135147.152000", "135147.155000", "135147.158000", "135147.161000", "135147.164000", "135147.167000", "135147.170000", "135227.082000", "135227.085000", "135227.088000", "135227.091000", "135227.094000", "135227.097000", "135227.100000", "135227.103000", "135227.106000", "135227.109000", "135227.111000", "135227.114000", "135227.117000", "135227.120000", "135227.123000", "135227.126000", "135227.129000", "135227.132000", "135227.135000", "135227.138000", "135227.141000", "135227.144000", "135227.146000", "135227.149000", "135227.152000", "135227.155000", "135227.158000", "135227.173000", "135227.176000", "135227.179000", "135227.182000", "135307.080000", "135307.083000", "135307.086000", "135307.089000", "135307.092000", "135307.095000", "135307.098000", "135307.100000", "135307.103000", "135307.106000", "135307.109000", "135307.112000", "135307.115000", "135307.118000", "135307.121000", "135307.124000", "135307.127000", "135307.130000", "135307.133000", "135307.135000", "135307.138000", "135307.141000", "135307.144000", "135307.161000", "135307.164000", "135307.167000", "135307.169000", "135307.172000", "135307.175000", "135307.178000", "135307.181000", "135347.080000", "135347.083000", "135347.086000", "135347.089000", "135347.092000", "135347.095000", "135347.098000", "135347.101000", "135347.104000", "135347.107000", "135347.109000", "135347.112000", "135347.115000", "135347.118000", "135347.121000", "135347.124000", "135347.127000", "135347.130000", "135347.133000", "135347.136000", "135347.138000", "135347.141000", "135347.144000", "135347.147000", "135347.150000", "135347.153000", "135347.156000", "135347.159000", "135347.162000", "135347.165000", "135347.173000", "135347.176000", "135427.081000", "135427.084000", "135427.087000", "135427.090000", "135427.093000", "135427.096000", "135427.099000", "135427.102000", "135427.105000", "135427.107000", "135427.110000", "135427.113000", "135427.116000", "135427.119000", "135427.133000", "135427.136000", "135427.139000", "135427.142000", "135427.145000", "135427.148000", "135427.151000", "135427.154000", "135427.157000", "135427.160000", "135427.163000", "135427.166000", "135427.168000", "135427.172000", "135427.175000", "135427.178000", "135427.181000", "135436.874000", "135436.877000", "135436.881000", "135436.884000", "135436.887000", "135436.891000", "135436.894000", "135436.897000"],
      "InstanceCreationTime": ["134707.088000", "134707.091000", "134707.094000", "134707.097000", "134707.100000", "134707.103000", "134707.106000", "134707.109000", "134707.112000", "134707.115000", "134707.118000", "134707.121000", "134707.123000", "134707.131000", "134707.140000", "134707.143000", "134707.145000", "134707.148000", "134707.151000", "134707.154000", "134707.157000", "134747.081000", "134747.084000", "134747.087000", "134747.090000", "134747.093000", "134747.096000", "134747.099000", "134747.102000", "134747.105000", "134747.108000", "134747.111000", "134747.114000", "134747.117000", "134747.120000", "134747.123000", "134747.126000", "134747.129000", "134747.132000", "134747.135000", "134747.138000", "134747.141000", "134747.144000", "134747.147000", "134747.150000", "134747.153000", "134747.156000", "134747.159000", "134747.161000", "134747.164000", "134747.167000", "134747.170000", "134827.081000", "134827.091000", "134827.094000", "134827.097000", "134827.100000", "134827.103000", "134827.106000", "134827.109000", "134827.112000", "134827.115000", "134827.118000", "134827.121000", "134827.123000", "134827.126000", "134827.129000", "134827.132000", "134827.135000", "134827.138000", "134827.141000", "134827.144000", "134827.147000", "134827.151000", "134827.154000", "134827.157000", "134827.160000", "134827.163000", "134827.166000", "134827.169000", "134827.172000", "134827.175000", "134827.179000", "134827.182000", "134907.080000", "134907.083000", "134907.086000", "134907.089000", "134907.092000", "134907.095000", "134907.097000", "134907.100000", "134907.103000", "134907.106000", "134907.109000", "134907.112000", "134907.115000", "134907.118000", "134907.121000", "134907.123000", "134907.126000", "134907.129000", "134907.146000", "134907.150000", "134907.152000", "134907.155000", "134907.158000", "134907.161000", "134907.164000", "134907.171000", "134907.174000", "134907.177000", "134907.180000", "134907.183000", "134907.186000", "134947.082000", "134947.085000", "134947.088000", "134947.091000", "134947.094000", "134947.097000", "134947.100000", "134947.103000", "134947.107000", "134947.110000", "134947.113000", "134947.115000", "134947.119000", "134947.122000", "134947.125000", "134947.128000", "134947.131000", "134947.133000", "134947.136000", "134947.139000", "134947.142000", "134947.145000", "134947.148000", "134947.151000", "134947.154000", "134947.157000", "134947.160000", "134947.163000", "134947.166000", "134947.169000", "134947.172000", "135027.081000", "135027.084000", "135027.087000", "135027.090000", "135027.093000", "135027.096000", "135027.099000", "135027.102000", "135027.104000", "135027.107000", "135027.110000", "135027.113000", "135027.116000", "135027.119000", "135027.122000", "135027.125000", "135027.127000", "135027.130000", "135027.133000", "135027.136000", "135027.139000", "135027.142000", "135027.145000", "135027.148000", "135027.151000", "135027.153000", "135027.156000", "135027.159000", "135027.162000", "135027.165000", "135027.168000", "135107.080000", "135107.083000", "135107.086000", "135107.089000", "135107.092000", "135107.095000", "135107.097000", "135107.100000", "135107.103000", "135107.106000", "135107.109000", "135107.112000", "135107.115000", "135107.118000", "135107.121000", "135107.124000", "135107.127000", "135107.129000", "135107.132000", "135107.135000", "135107.138000", "135107.141000", "135107.144000", "135107.147000", "135107.150000", "135107.153000", "135107.156000", "135107.159000", "135107.161000", "135107.164000", "135107.167000", "135107.170000", "135147.081000", "135147.084000", "135147.087000", "135147.090000", "135147.093000", "135147.096000", "135147.099000", "135147.102000", "135147.105000", "135147.108000", "135147.110000", "135147.113000", "135147.116000", "135147.119000", "135147.122000", "135147.125000", "135147.128000", "135147.131000", "135147.134000", "135147.137000", "135147.140000", "135147.144000", "135147.146000", "135147.149000", "135147.152000", "135147.155000", "135147.158000", "135147.161000", "135147.164000", "135147.167000", "135147.170000", "135227.082000", "135227.085000", "135227.088000", "135227.091000", "135227.094000", "135227.097000", "135227.100000", "135227.103000", "135227.106000", "135227.109000", "135227.111000", "135227.114000", "135227.117000", "135227.120000", "135227.123000", "135227.126000", "135227.129000", "135227.132000", "135227.135000", "135227.138000", "135227.141000", "135227.144000", "135227.146000", "135227.149000", "135227.152000", "135227.155000", "135227.158000", "135227.173000", "135227.176000", "135227.179000", "135227.182000", "135307.080000", "135307.083000", "135307.086000", "135307.089000", "135307.092000", "135307.095000", "135307.098000", "135307.100000", "135307.103000", "135307.106000", "135307.109000", "135307.112000", "135307.115000", "135307.118000", "135307.121000", "135307.124000", "135307.127000", "135307.130000", "135307.133000", "135307.135000", "135307.138000", "135307.141000", "135307.144000", "135307.161000", "135307.164000", "135307.167000", "135307.169000", "135307.172000", "135307.175000", "135307.178000", "135307.181000", "135347.080000", "135347.083000", "135347.086000", "135347.089000", "135347.092000", "135347.095000", "135347.098000", "135347.101000", "135347.104000", "135347.107000", "135347.109000", "135347.112000", "135347.115000", "135347.118000", "135347.121000", "135347.124000", "135347.127000", "135347.130000", "135347.133000", "135347.136000", "135347.138000", "135347.141000", "135347.144000", "135347.147000", "135347.150000", "135347.153000", "135347.156000", "135347.159000", "135347.162000", "135347.165000", "135347.173000", "135347.176000", "135427.081000", "135427.084000", "135427.087000", "135427.090000", "135427.093000", "135427.096000", "135427.099000", "135427.102000", "135427.105000", "135427.107000", "135427.110000", "135427.113000", "135427.116000", "135427.119000", "135427.133000", "135427.136000", "135427.139000", "135427.142000", "135427.145000", "135427.148000", "135427.151000", "135427.154000", "135427.157000", "135427.160000", "135427.163000", "135427.166000", "135427.168000", "135427.172000", "135427.175000", "135427.178000", "135427.181000", "135436.874000", "135436.877000", "135436.881000", "135436.884000", "135436.887000", "135436.891000", "135436.894000", "135436.897000"],
      "InstanceNumber": [1, 2, 3, 4, 5, 6, 7, 8, 9, 10, 11, 12, 13, 14, 15, 16, 17, 18, 19, 20, 21, 22, 23, 24, 25, 26, 27, 28, 29, 30, 31, 32, 33, 34, 35, 36, 37, 38, 39, 40, 41, 42, 43, 44, 45, 46, 47, 48, 49, 50, 51, 52, 53, 54, 55, 56, 57, 58, 59, 60, 61, 62, 63, 64, 65, 66, 67, 68, 69, 70, 71, 72, 73, 74, 75, 76, 77, 78, 79, 80, 81, 82, 83, 84, 85, 86, 87, 88, 89, 90, 91, 92, 93, 94, 95, 96, 97, 98, 99, 100, 101, 102, 103, 104, 105, 106, 107, 108, 109, 110, 111, 112, 113, 114, 115, 116, 117, 118, 119, 120, 121, 122, 123, 124, 125, 126, 127, 128, 129, 130, 131, 132, 133, 134, 135, 136, 137, 138, 139, 140, 141, 142, 143, 144, 145, 146, 147, 148, 149, 150, 151, 152, 153, 154, 155, 156, 157, 158, 159, 160, 161, 162, 163, 164, 165, 166, 167, 168, 169, 170, 171, 172, 173, 174, 175, 176, 177, 178, 179, 180, 181, 182, 183, 184, 185, 186, 187, 188, 189, 190, 191, 192, 193, 194, 195, 196, 197, 198, 199, 200, 201, 202, 203, 204, 205, 206, 207, 208, 209, 210, 211, 212, 213, 214, 215, 216, 217, 218, 219, 220, 221, 222, 223, 224, 225, 226, 227, 228, 229, 230, 231, 232, 233, 234, 235, 236, 237, 238, 239, 240, 241, 242, 243, 244, 245, 246, 247, 248, 249, 250, 251, 252, 253, 254, 255, 256, 257, 258, 259, 260, 261, 262, 263, 264, 265, 266, 267, 268, 269, 270, 271, 272, 273, 274, 275, 276, 277, 278, 279, 280, 281, 282, 283, 284, 285, 286, 287, 288, 289, 290, 291, 292, 293, 294, 295, 296, 297, 298, 299, 300, 301, 302, 303, 304, 305, 306, 307, 308, 309, 310, 311, 312, 313, 314, 315, 316, 317, 318, 319, 320, 321, 322, 323, 324, 325, 326, 327, 328, 329, 330, 331, 332, 333, 334, 335, 336, 337, 338, 339, 340, 341, 342, 343, 344, 345, 346, 347, 348, 349, 350, 351, 352, 353, 354, 355, 356, 357, 358, 359, 360, 361, 362, 363, 364, 365, 366, 367, 368, 369, 370, 371, 372, 373],
