{
  "AcquisitionMatrixPE": 108,
  "AcquisitionNumber": 1,
  "AcquisitionTime": "14:28:7.655000",
  "BandwidthPerPixelPhaseEncode": 15.964,
  "BaseResolution": 108,
  "BodyPartExamined": "BRAIN",
  "ConsistencyInfo": "N4_VE11C_LATEST_20160120",
  "ConversionSoftware": "dcm2niix",
  "ConversionSoftwareVersion": "v1.0.20180622 GCC6.3.0",
  "DerivedVendorReportedEchoSpacing": 0.000580009,
  "DeviceSerialNumber": "66054",
  "DwellTime": 2.1e-06,
  "EchoTime": 0.031,
  "EchoTrainLength": 95,
  "EffectiveEchoSpacing": 0.000580009,
  "FlipAngle": 64,
  "ImageOrientationPatientDICOM": [0.995637, 0.092866, -0.00905878, -0.0906101, 0.939123, -0.331418],
  "ImageType": [
    "ORIGINAL",
    "PRIMARY",
    "M",
    "ND",
    "MOSAIC"
],
  "InPlanePhaseEncodingDirectionDICOM": "COL",
  "InstitutionAddress": "Chemin_des_Mines_9_Geneve_District_CH_1211",
  "InstitutionName": "Fondation_Campus_Biotech_Geneva",
  "InstitutionalDepartmentName": "Department",
  "MRAcquisitionType": "2D",
  "MagneticFieldStrength": 3,
  "Manufacturer": "Siemens",
  "ManufacturersModelName": "Prisma",
  "Modality": "MR",
  "MultibandAccelerationFactor": 4,
  "PartialFourier": 0.875,
  "PatientPosition": "HFS",
  "PercentPhaseFOV": 100,
  "PhaseEncodingDirection": "j-",
  "PhaseEncodingSteps": 95,
  "PhaseResolution": 1,
  "PixelBandwidth": 2205,
  "ProcedureStepDescription": "J.DRM_Michael",
  "ProtocolName": "Run5_bold_s4_TR1.28",
  "PulseSequenceDetails": "%SiemensSeq%_ep2d_bold",
  "ReceiveCoilActiveElements": "HC1-7;NC1,2",
  "ReceiveCoilName": "HeadNeck_64",
  "ReconMatrixPE": 108,
  "RepetitionTime": 1.28,
  "SAR": 0.0772296,
  "ScanOptions": "PFP_FS",
  "ScanningSequence": "EP",
  "SequenceName": "_epfid2d1_108",
  "SequenceVariant": "SK",
  "SeriesDescription": "Run5_bold_s4_TR1.28",
  "SeriesNumber": 11,
  "ShimSetting": [-1264, -11677, 6487, 683, 98, -92, 62, 45],
  "SliceThickness": 2,
  "SliceTiming": [0.945, 0, 0.63, 0.08, 0.7075, 0.1575, 0.7875, 0.235, 0.865, 0.3925, 1.0225, 0.4725, 1.1025, 0.55, 1.18, 0.315, 0.945, 0, 0.63, 0.08, 0.7075, 0.1575, 0.7875, 0.235, 0.865, 0.3925, 1.0225, 0.4725, 1.1025, 0.55, 1.18, 0.315, 0.945, 0, 0.63, 0.08, 0.7075, 0.1575, 0.7875, 0.235, 0.865, 0.3925, 1.0225, 0.4725, 1.1025, 0.55, 1.18, 0.315, 0.945, 0, 0.63, 0.08, 0.7075, 0.1575, 0.7875, 0.235, 0.865, 0.3925, 1.0225, 0.4725, 1.1025, 0.55, 1.18, 0.315],
  "SoftwareVersions": "syngo_MR_E11",
  "SpacingBetweenSlices": 2,
  "StationName": "AWP66054",
  "TaskName": "main",
  "TotalReadoutTime": 0.0620609,
  "TxRefAmp": 302.621,
  "dcmmeta_affine": [
    [-1.9820560216903687, -0.18038123846054077, 0.04454023391008377, 111.79391479492188],
    [-0.1848720759153366, 1.8695505857467651, -0.66158527135849, -53.654300689697266],
    [-0.018033673986792564, 0.659766674041748, 1.8868812322616577, -84.34577941894531],
    [0.0, 0.0, 0.0, 1.0]
],
  "dcmmeta_reorient_transform": [
    [0.0, -1.0, 0.0, 107.0],
    [1.0, 0.0, 0.0, 0.0],
    [0.0, 0.0, 1.0, 0.0],
    [0.0, 0.0, 0.0, 1.0]
],
  "dcmmeta_shape": [108, 108, 64, 371],
  "dcmmeta_slice_dim": 2,
  "dcmmeta_version": 0.6,
  "global": {
    "const": {
      "AccessionNumber": "",
      "AcquisitionMatrix": [108, 0, 0, 108],
      "AngioFlag": "N",
      "BitsAllocated": 16,
      "BitsStored": 12,
      "BodyPartExamined": "BRAIN",
      "Columns": 864,
      "EchoNumbers": 1,
      "EchoTime": 31.0,
      "EchoTrainLength": 95,
      "FlipAngle": 64.0,
      "HighBit": 11,
      "ImageOrientationPatient": [0.99563740917737, 0.09286596810967, -0.0090587755036, -0.0906101059237, 0.93912306732364, -0.3314176717152],
      "ImagePositionPatient": [-773.52618091762, -922.95937390876, 242.45778294553],
      "ImageType": [
        "ORIGINAL",
        "PRIMARY",
        "M",
        "ND",
        "MOSAIC"
],
      "ImagedNucleus": "1H",
      "ImagingFrequency": 123.25741,
      "InPlanePhaseEncodingDirection": "COL",
      "MRAcquisitionType": "2D",
      "MagneticFieldStrength": 3.0,
      "Manufacturer": "SIEMENS",
      "ManufacturerModelName": "Prisma",
      "Modality": "MR",
      "NumberOfAverages": 1.0,
      "NumberOfPhaseEncodingSteps": 95,
      "PercentPhaseFieldOfView": 100.0,
      "PercentSampling": 100.0,
      "PerformedProcedureStepStartTime": "133400.902000",
      "PhotometricInterpretation": "MONOCHROME2",
      "PixelBandwidth": 2205.0,
      "PixelRepresentation": 0,
      "PixelSpacing": [1.990740776062, 1.990740776062],
      "PositionReferenceIndicator": "",
      "ProtocolName": "Run5_bold_s4_TR1.28",
      "RepetitionTime": 1280.0,
      "Rows": 864,
      "SAR": 0.07722964399327,
      "SamplesPerPixel": 1,
      "ScanOptions": [
        "PFP",
        "FS"
],
      "ScanningSequence": "EP",
      "SequenceName": "*epfid2d1_108",
      "SequenceVariant": "SK",
      "SeriesDescription": "Run5_bold_s4_TR1.28",
      "SeriesNumber": 11,
      "SeriesTime": "142847.229000",
      "SliceLocation": -59.337127596907,
      "SliceThickness": 2.0,
      "SmallestImagePixelValue": 0,
      "SoftwareVersions": "syngo MR E11",
      "SpacingBetweenSlices": 1.9999999533462,
      "SpecificCharacterSet": "ISO_IR 100",
      "StudyID": "1",
      "StudyTime": "133400.831000",
      "TransmitCoilName": "Body",
      "VariableFlipAngleFlag": "N",
      "WindowCenterWidthExplanation": "Algo1",
      "dBdt": 0.0},
    "slices": {}
  },
  "time": {
    "samples": {
      "AcquisitionNumber": [1, 2, 3, 4, 5, 6, 7, 8, 9, 10, 11, 12, 13, 14, 15, 16, 17, 18, 19, 20, 21, 22, 23, 24, 25, 26, 27, 28, 29, 30, 31, 32, 33, 34, 35, 36, 37, 38, 39, 40, 41, 42, 43, 44, 45, 46, 47, 48, 49, 50, 51, 52, 53, 54, 55, 56, 57, 58, 59, 60, 61, 62, 63, 64, 65, 66, 67, 68, 69, 70, 71, 72, 73, 74, 75, 76, 77, 78, 79, 80, 81, 82, 83, 84, 85, 86, 87, 88, 89, 90, 91, 92, 93, 94, 95, 96, 97, 98, 99, 100, 101, 102, 103, 104, 105, 106, 107, 108, 109, 110, 111, 112, 113, 114, 115, 116, 117, 118, 119, 120, 121, 122, 123, 124, 125, 126, 127, 128, 129, 130, 131, 132, 133, 134, 135, 136, 137, 138, 139, 140, 141, 142, 143, 144, 145, 146, 147, 148, 149, 150, 151, 152, 153, 154, 155, 156, 157, 158, 159, 160, 161, 162, 163, 164, 165, 166, 167, 168, 169, 170, 171, 172, 173, 174, 175, 176, 177, 178, 179, 180, 181, 182, 183, 184, 185, 186, 187, 188, 189, 190, 191, 192, 193, 194, 195, 196, 197, 198, 199, 200, 201, 202, 203, 204, 205, 206, 207, 208, 209, 210, 211, 212, 213, 214, 215, 216, 217, 218, 219, 220, 221, 222, 223, 224, 225, 226, 227, 228, 229, 230, 231, 232, 233, 234, 235, 236, 237, 238, 239, 240, 241, 242, 243, 244, 245, 246, 247, 248, 249, 250, 251, 252, 253, 254, 255, 256, 257, 258, 259, 260, 261, 262, 263, 264, 265, 266, 267, 268, 269, 270, 271, 272, 273, 274, 275, 276, 277, 278, 279, 280, 281, 282, 283, 284, 285, 286, 287, 288, 289, 290, 291, 292, 293, 294, 295, 296, 297, 298, 299, 300, 301, 302, 303, 304, 305, 306, 307, 308, 309, 310, 311, 312, 313, 314, 315, 316, 317, 318, 319, 320, 321, 322, 323, 324, 325, 326, 327, 328, 329, 330, 331, 332, 333, 334, 335, 336, 337, 338, 339, 340, 341, 342, 343, 344, 345, 346, 347, 348, 349, 350, 351, 352, 353, 354, 355, 356, 357, 358, 359, 360, 361, 362, 363, 364, 365, 366, 367, 368, 369, 370, 371],
      "AcquisitionTime": ["142807.655000", "142808.935000", "142810.215000", "142811.495000", "142812.775000", "142814.055000", "142815.335000", "142816.615000", "142817.895000", "142819.175000", "142820.455000", "142821.735000", "142823.015000", "142824.295000", "142825.575000", "142826.855000", "142828.135000", "142829.415000", "142830.695000", "142831.975000", "142833.255000", "142834.535000", "142835.815000", "142837.095000", "142838.375000", "142839.655000", "142840.935000", "142842.215000", "142843.495000", "142844.775000", "142846.055000", "142847.335000", "142848.615000", "142849.895000", "142851.175000", "142852.455000", "142853.735000", "142855.015000", "142856.295000", "142857.575000", "142858.855000", "142900.135000", "142901.415000", "142902.695000", "142903.975000", "142905.255000", "142906.535000", "142907.815000", "142909.095000", "142910.375000", "142911.655000", "142912.935000", "142914.215000", "142915.495000", "142916.775000", "142918.055000", "142919.335000", "142920.615000", "142921.895000", "142923.175000", "142924.455000", "142925.735000", "142927.015000", "142928.295000", "142929.575000", "142930.855000", "142932.135000", "142933.415000", "142934.695000", "142935.975000", "142937.255000", "142938.535000", "142939.815000", "142941.095000", "142942.375000", "142943.655000", "142944.935000", "142946.215000", "142947.495000", "142948.775000", "142950.055000", "142951.335000", "142952.615000", "142953.895000", "142955.175000", "142956.455000", "142957.735000", "142959.015000", "143000.295000", "143001.575000", "143002.855000", "143004.135000", "143005.415000", "143006.695000", "143007.975000", "143009.255000", "143010.535000", "143011.815000", "143013.095000", "143014.375000", "143015.655000", "143016.935000", "143018.215000", "143019.495000", "143020.775000", "143022.055000", "143023.335000", "143024.615000", "143025.895000", "143027.175000", "143028.455000", "143029.735000", "143031.015000", "143032.295000", "143033.575000", "143034.855000", "143036.135000", "143037.415000", "143038.695000", "143039.975000", "143041.255000", "143042.535000", "143043.815000", "143045.095000", "143046.375000", "143047.655000", "143048.935000", "143050.215000", "143051.495000", "143052.775000", "143054.055000", "143055.335000", "143056.615000", "143057.895000", "143059.175000", "143100.455000", "143101.735000", "143103.015000", "143104.295000", "143105.575000", "143106.855000", "143108.135000", "143109.415000", "143110.695000", "143111.975000", "143113.255000", "143114.535000", "143115.815000", "143117.095000", "143118.375000", "143119.655000", "143120.935000", "143122.215000", "143123.495000", "143124.775000", "143126.055000", "143127.335000", "143128.615000", "143129.895000", "143131.175000", "143132.455000", "143133.735000", "143135.015000", "143136.295000", "143137.575000", "143138.855000", "143140.135000", "143141.415000", "143142.695000", "143143.975000", "143145.255000", "143146.535000", "143147.815000", "143149.095000", "143150.375000", "143151.655000", "143152.935000", "143154.215000", "143155.495000", "143156.775000", "143158.055000", "143159.335000", "143200.615000", "143201.895000", "143203.175000", "143204.455000", "143205.735000", "143207.015000", "143208.295000", "143209.575000", "143210.855000", "143212.135000", "143213.415000", "143214.695000", "143215.975000", "143217.255000", "143218.535000", "143219.815000", "143221.095000", "143222.375000", "143223.655000", "143224.935000", "143226.215000", "143227.495000", "143228.775000", "143230.055000", "143231.335000", "143232.615000", "143233.895000", "143235.175000", "143236.455000", "143237.735000", "143239.015000", "143240.295000", "143241.575000", "143242.855000", "143244.135000", "143245.415000", "143246.695000", "143247.975000", "143249.255000", "143250.535000", "143251.815000", "143253.095000", "143254.375000", "143255.655000", "143256.935000", "143258.215000", "143259.495000", "143300.775000", "143302.055000", "143303.335000", "143304.615000", "143305.895000", "143307.175000", "143308.455000", "143309.735000", "143311.015000", "143312.295000", "143313.575000", "143314.855000", "143316.135000", "143317.415000", "143318.695000", "143319.975000", "143321.255000", "143322.535000", "143323.815000", "143325.095000", "143326.375000", "143327.655000", "143328.935000", "143330.215000", "143331.495000", "143332.775000", "143334.055000", "143335.335000", "143336.615000", "143337.895000", "143339.175000", "143340.455000", "143341.735000", "143343.015000", "143344.295000", "143345.575000", "143346.855000", "143348.135000", "143349.415000", "143350.695000", "143351.975000", "143353.255000", "143354.535000", "143355.815000", "143357.095000", "143358.375000", "143359.655000", "143400.935000", "143402.215000", "143403.495000", "143404.775000", "143406.055000", "143407.335000", "143408.615000", "143409.895000", "143411.175000", "143412.455000", "143413.735000", "143415.015000", "143416.295000", "143417.575000", "143418.855000", "143420.135000", "143421.415000", "143422.695000", "143423.975000", "143425.255000", "143426.535000", "143427.815000", "143429.095000", "143430.375000", "143431.655000", "143432.935000", "143434.215000", "143435.495000", "143436.775000", "143438.055000", "143439.335000", "143440.615000", "143441.895000", "143443.175000", "143444.455000", "143445.735000", "143447.015000", "143448.295000", "143449.575000", "143450.855000", "143452.135000", "143453.415000", "143454.695000", "143455.975000", "143457.255000", "143458.535000", "143459.815000", "143501.095000", "143502.375000", "143503.655000", "143504.935000", "143506.215000", "143507.495000", "143508.775000", "143510.055000", "143511.335000", "143512.615000", "143513.895000", "143515.175000", "143516.455000", "143517.735000", "143519.015000", "143520.295000", "143521.575000", "143522.855000", "143524.135000", "143525.415000", "143526.695000", "143527.975000", "143529.255000", "143530.535000", "143531.815000", "143533.095000", "143534.375000", "143535.655000", "143536.935000", "143538.215000", "143539.495000", "143540.775000", "143542.055000", "143543.335000", "143544.615000", "143545.895000", "143547.175000", "143548.455000", "143549.735000", "143551.015000", "143552.295000", "143553.575000", "143554.855000", "143556.135000", "143557.415000", "143558.695000", "143559.975000", "143601.255000"],
      "ContentTime": ["142847.246000", "142847.250000", "142847.253000", "142847.256000", "142847.259000", "142847.262000", "142847.265000", "142847.267000", "142847.270000", "142847.273000", "142847.276000", "142847.279000", "142847.290000", "142847.293000", "142847.296000", "142847.299000", "142847.302000", "142847.305000", "142847.308000", "142847.311000", "142847.314000", "142847.317000", "142847.320000", "142847.323000", "142847.325000", "142847.328000", "142847.331000", "142847.334000", "142847.337000", "142847.340000", "142927.228000", "142927.231000", "142927.234000", "142927.237000", "142927.240000", "142927.243000", "142927.246000", "142927.248000", "142927.251000", "142927.254000", "142927.257000", "142927.260000", "142927.263000", "142927.266000", "142927.269000", "142927.272000", "142927.281000", "142927.284000", "142927.287000", "142927.290000", "142927.293000", "142927.296000", "142927.298000", "142927.301000", "142927.304000", "142927.307000", "142927.310000", "142927.313000", "142927.316000", "142927.319000", "142927.321000", "142927.324000", "143007.228000", "143007.231000", "143007.234000", "143007.237000", "143007.240000", "143007.243000", "143007.246000", "143007.249000", "143007.252000", "143007.254000", "143007.257000", "143007.260000", "143007.268000", "143007.271000", "143007.274000", "143007.277000", "143007.280000", "143007.283000", "143007.286000", "143007.289000", "143007.292000", "143007.295000", "143007.298000", "143007.301000", "143007.304000", "143007.307000", "143007.310000", "143007.313000", "143007.316000", "143007.319000", "143007.322000", "143047.227000", "143047.230000", "143047.233000", "143047.236000", "143047.239000", "143047.242000", "143047.245000", "143047.248000", "143047.251000", "143047.254000", "143047.257000", "143047.260000", "143047.263000", "143047.265000", "143047.268000", "143047.271000", "143047.274000", "143047.277000", "143047.280000", "143047.283000", "143047.286000", "143047.289000", "143047.292000", "143047.295000", "143047.298000", "143047.301000", "143047.304000", "143047.307000", "143047.309000", "143047.312000", "143047.315000", "143127.228000", "143127.231000", "143127.234000", "143127.237000", "143127.240000", "143127.243000", "143127.246000", "143127.249000", "143127.252000", "143127.255000", "143127.259000", "143127.262000", "143127.265000", "143127.268000", "143127.271000", "143127.274000", "143127.277000", "143127.280000", "143127.283000", "143127.286000", "143127.289000", "143127.292000", "143127.294000", "143127.297000", "143127.300000", "143127.309000", "143127.312000", "143127.315000", "143127.318000", "143127.321000", "143127.324000", "143207.228000", "143207.231000", "143207.234000", "143207.237000", "143207.240000", "143207.243000", "143207.246000", "143207.249000", "143207.252000", "143207.255000", "143207.258000", "143207.260000", "143207.263000", "143207.266000", "143207.269000", "143207.272000", "143207.275000", "143207.278000", "143207.281000", "143207.298000", "143207.301000", "143207.304000", "143207.307000", "143207.310000", "143207.313000", "143207.316000", "143207.318000", "143207.321000", "143207.324000", "143207.327000", "143207.330000", "143207.333000", "143247.227000", "143247.230000", "143247.233000", "143247.236000", "143247.239000", "143247.242000", "143247.245000", "143247.248000", "143247.251000", "143247.253000", "143247.256000", "143247.259000", "143247.262000", "143247.265000", "143247.268000", "143247.271000", "143247.274000", "143247.277000", "143247.280000", "143247.283000", "143247.286000", "143247.289000", "143247.292000", "143247.295000", "143247.298000", "143247.301000", "143247.304000", "143247.307000", "143247.310000", "143247.313000", "143247.316000", "143327.228000", "143327.231000", "143327.234000", "143327.237000", "143327.240000", "143327.243000", "143327.246000", "143327.249000", "143327.252000", "143327.255000", "143327.258000", "143327.261000", "143327.264000", "143327.266000", "143327.269000", "143327.272000", "143327.275000", "143327.278000", "143327.281000", "143327.284000", "143327.287000", "143327.290000", "143327.293000", "143327.296000", "143327.299000", "143327.302000", "143327.305000", "143327.308000", "143327.311000", "143327.313000", "143327.316000", "143407.228000", "143407.231000", "143407.234000", "143407.237000", "143407.240000", "143407.243000", "143407.246000", "143407.249000", "143407.252000", "143407.255000", "143407.257000", "143407.260000", "143407.263000", "143407.266000", "143407.269000", "143407.272000", "143407.275000", "143407.278000", "143407.281000", "143407.284000", "143407.287000", "143407.290000", "143407.293000", "143407.296000", "143407.299000", "143407.301000", "143407.304000", "143407.307000", "143407.310000", "143407.313000", "143407.316000", "143447.227000", "143447.230000", "143447.233000", "143447.236000", "143447.239000", "143447.242000", "143447.245000", "143447.248000", "143447.251000", "143447.254000", "143447.257000", "143447.260000", "143447.262000", "143447.265000", "143447.268000", "143447.271000", "143447.274000", "143447.277000", "143447.280000", "143447.283000", "143447.286000", "143447.289000", "143447.292000", "143447.295000", "143447.298000", "143447.301000", "143447.304000", "143447.307000", "143447.309000", "143447.312000", "143447.315000", "143447.318000", "143527.227000", "143527.230000", "143527.233000", "143527.236000", "143527.239000", "143527.242000", "143527.245000", "143527.248000", "143527.251000", "143527.253000", "143527.256000", "143527.259000", "143527.262000", "143527.265000", "143527.268000", "143527.271000", "143527.274000", "143527.278000", "143527.281000", "143527.284000", "143527.287000", "143527.290000", "143527.292000", "143527.295000", "143527.298000", "143527.301000", "143527.304000", "143527.307000", "143527.310000", "143527.313000", "143527.316000", "143602.572000", "143602.575000", "143602.578000", "143602.581000", "143602.584000", "143602.588000", "143602.602000", "143602.606000", "143602.609000", "143602.613000", "143602.617000", "143602.621000", "143602.626000", "143602.637000", "143602.642000", "143602.645000", "143602.648000", "143602.651000", "143602.664000", "143602.668000", "143602.671000", "143602.674000", "143602.677000", "143602.681000", "143602.684000", "143602.686000", "143602.689000", "143602.692000"],
      "InstanceCreationTime": ["142847.246000", "142847.250000", "142847.253000", "142847.256000", "142847.259000", "142847.262000", "142847.265000", "142847.267000", "142847.270000", "142847.273000", "142847.276000", "142847.279000", "142847.290000", "142847.293000", "142847.296000", "142847.299000", "142847.302000", "142847.305000", "142847.308000", "142847.311000", "142847.314000", "142847.317000", "142847.320000", "142847.323000", "142847.325000", "142847.328000", "142847.331000", "142847.334000", "142847.337000", "142847.340000", "142927.228000", "142927.231000", "142927.234000", "142927.237000", "142927.240000", "142927.243000", "142927.246000", "142927.248000", "142927.251000", "142927.254000", "142927.257000", "142927.260000", "142927.263000", "142927.266000", "142927.269000", "142927.272000", "142927.281000", "142927.284000", "142927.287000", "142927.290000", "142927.293000", "142927.296000", "142927.298000", "142927.301000", "142927.304000", "142927.307000", "142927.310000", "142927.313000", "142927.316000", "142927.319000", "142927.321000", "142927.324000", "143007.228000", "143007.231000", "143007.234000", "143007.237000", "143007.240000", "143007.243000", "143007.246000", "143007.249000", "143007.252000", "143007.254000", "143007.257000", "143007.260000", "143007.268000", "143007.271000", "143007.274000", "143007.277000", "143007.280000", "143007.283000", "143007.286000", "143007.289000", "143007.292000", "143007.295000", "143007.298000", "143007.301000", "143007.304000", "143007.307000", "143007.310000", "143007.313000", "143007.316000", "143007.319000", "143007.322000", "143047.227000", "143047.230000", "143047.233000", "143047.236000", "143047.239000", "143047.242000", "143047.245000", "143047.248000", "143047.251000", "143047.254000", "143047.257000", "143047.260000", "143047.263000", "143047.265000", "143047.268000", "143047.271000", "143047.274000", "143047.277000", "143047.280000", "143047.283000", "143047.286000", "143047.289000", "143047.292000", "143047.295000", "143047.298000", "143047.301000", "143047.304000", "143047.307000", "143047.309000", "143047.312000", "143047.315000", "143127.228000", "143127.231000", "143127.234000", "143127.237000", "143127.240000", "143127.243000", "143127.246000", "143127.249000", "143127.252000", "143127.255000", "143127.259000", "143127.262000", "143127.265000", "143127.268000", "143127.271000", "143127.274000", "143127.277000", "143127.280000", "143127.283000", "143127.286000", "143127.289000", "143127.292000", "143127.294000", "143127.297000", "143127.300000", "143127.309000", "143127.312000", "143127.315000", "143127.318000", "143127.321000", "143127.324000", "143207.228000", "143207.231000", "143207.234000", "143207.237000", "143207.240000", "143207.243000", "143207.246000", "143207.249000", "143207.252000", "143207.255000", "143207.258000", "143207.260000", "143207.263000", "143207.266000", "143207.269000", "143207.272000", "143207.275000", "143207.278000", "143207.281000", "143207.298000", "143207.301000", "143207.304000", "143207.307000", "143207.310000", "143207.313000", "143207.316000", "143207.318000", "143207.321000", "143207.324000", "143207.327000", "143207.330000", "143207.333000", "143247.227000", "143247.230000", "143247.233000", "143247.236000", "143247.239000", "143247.242000", "143247.245000", "143247.248000", "143247.251000", "143247.253000", "143247.256000", "143247.259000", "143247.262000", "143247.265000", "143247.268000", "143247.271000", "143247.274000", "143247.277000", "143247.280000", "143247.283000", "143247.286000", "143247.289000", "143247.292000", "143247.295000", "143247.298000", "143247.301000", "143247.304000", "143247.307000", "143247.310000", "143247.313000", "143247.316000", "143327.228000", "143327.231000", "143327.234000", "143327.237000", "143327.240000", "143327.243000", "143327.246000", "143327.249000", "143327.252000", "143327.255000", "143327.258000", "143327.261000", "143327.264000", "143327.266000", "143327.269000", "143327.272000", "143327.275000", "143327.278000", "143327.281000", "143327.284000", "143327.287000", "143327.290000", "143327.293000", "143327.296000", "143327.299000", "143327.302000", "143327.305000", "143327.308000", "143327.311000", "143327.313000", "143327.316000", "143407.228000", "143407.231000", "143407.234000", "143407.237000", "143407.240000", "143407.243000", "143407.246000", "143407.249000", "143407.252000", "143407.255000", "143407.257000", "143407.260000", "143407.263000", "143407.266000", "143407.269000", "143407.272000", "143407.275000", "143407.278000", "143407.281000", "143407.284000", "143407.287000", "143407.290000", "143407.293000", "143407.296000", "143407.299000", "143407.301000", "143407.304000", "143407.307000", "143407.310000", "143407.313000", "143407.316000", "143447.227000", "143447.230000", "143447.233000", "143447.236000", "143447.239000", "143447.242000", "143447.245000", "143447.248000", "143447.251000", "143447.254000", "143447.257000", "143447.260000", "143447.262000", "143447.265000", "143447.268000", "143447.271000", "143447.274000", "143447.277000", "143447.280000", "143447.283000", "143447.286000", "143447.289000", "143447.292000", "143447.295000", "143447.298000", "143447.301000", "143447.304000", "143447.307000", "143447.309000", "143447.312000", "143447.315000", "143447.318000", "143527.227000", "143527.230000", "143527.233000", "143527.236000", "143527.239000", "143527.242000", "143527.245000", "143527.248000", "143527.251000", "143527.253000", "143527.256000", "143527.259000", "143527.262000", "143527.265000", "143527.268000", "143527.271000", "143527.274000", "143527.278000", "143527.281000", "143527.284000", "143527.287000", "143527.290000", "143527.292000", "143527.295000", "143527.298000", "143527.301000", "143527.304000", "143527.307000", "143527.310000", "143527.313000", "143527.316000", "143602.572000", "143602.575000", "143602.578000", "143602.581000", "143602.584000", "143602.588000", "143602.602000", "143602.606000", "143602.609000", "143602.613000", "143602.617000", "143602.621000", "143602.626000", "143602.637000", "143602.642000", "143602.645000", "143602.648000", "143602.651000", "143602.664000", "143602.668000", "143602.671000", "143602.674000", "143602.677000", "143602.681000", "143602.684000", "143602.686000", "143602.689000", "143602.692000"],
      "InstanceNumber": [1, 2, 3, 4, 5, 6, 7, 8, 9, 10, 11, 12, 13, 14, 15, 16, 17, 18, 19, 20, 21, 22, 23, 24, 25, 26, 27, 28, 29, 30, 31, 32, 33, 34, 35, 36, 37, 38, 39, 40, 41, 42, 43, 44, 45, 46, 47, 48, 49, 50, 51, 52, 53, 54, 55, 56, 57, 58, 59, 60, 61, 62, 63, 64, 65, 66, 67, 68, 69, 70, 71, 72, 73, 74, 75, 76, 77, 78, 79, 80, 81, 82, 83, 84, 85, 86, 87, 88, 89, 90, 91, 92, 93, 94, 95, 96, 97, 98, 99, 100, 101, 102, 103, 104, 105, 106, 107, 108, 109, 110, 111, 112, 113, 114, 115, 116, 117, 118, 119, 120, 121, 122, 123, 124, 125, 126, 127, 128, 129, 130, 131, 132, 133, 134, 135, 136, 137, 138, 139, 140, 141, 142, 143, 144, 145, 146, 147, 148, 149, 150, 151, 152, 153, 154, 155, 156, 157, 158, 159, 160, 161, 162, 163, 164, 165, 166, 167, 168, 169, 170, 171, 172, 173, 174, 175, 176, 177, 178, 179, 180, 181, 182, 183, 184, 185, 186, 187, 188, 189, 190, 191, 192, 193, 194, 195, 196, 197, 198, 199, 200, 201, 202, 203, 204, 205, 206, 207, 208, 209, 210, 211, 212, 213, 214, 215, 216, 217, 218, 219, 220, 221, 222, 223, 224, 225, 226, 227, 228, 229, 230, 231, 232, 233, 234, 235, 236, 237, 238, 239, 240, 241, 242, 243, 244, 245, 246, 247, 248, 249, 250, 251, 252, 253, 254, 255, 256, 257, 258, 259, 260, 261, 262, 263, 264, 265, 266, 267, 268, 269, 270, 271, 272, 273, 274, 275, 276, 277, 278, 279, 280, 281, 282, 283, 284, 285, 286, 287, 288, 289, 290, 291, 292, 293, 294, 295, 296, 297, 298, 299, 300, 301, 302, 303, 304, 305, 306, 307, 308, 309, 310, 311, 312, 313, 314, 315, 316, 317, 318, 319, 320, 321, 322, 323, 324, 325, 326, 327, 328, 329, 330, 331, 332, 333, 334, 335, 336, 337, 338, 339, 340, 341, 342, 343, 344, 345, 346, 347, 348, 349, 350, 351, 352, 353, 354, 355, 356, 357, 358, 359, 360, 361, 362, 363, 364, 365, 366, 367, 368, 369, 370, 371],
