{
  "AcquisitionMatrixPE": 108,
  "AcquisitionNumber": 1,
  "AcquisitionTime": "12:14:55.610000",
  "BandwidthPerPixelPhaseEncode": 15.964,
  "BaseResolution": 108,
  "BodyPartExamined": "BRAIN",
  "ConsistencyInfo": "N4_VE11C_LATEST_20160120",
  "ConversionSoftware": "dcm2niix",
  "ConversionSoftwareVersion": "v1.0.20180622 GCC6.3.0",
  "DerivedVendorReportedEchoSpacing": 0.000580009,
  "DeviceSerialNumber": "66054",
  "DwellTime": 2.1e-06,
  "EchoTime": 0.031,
  "EchoTrainLength": 95,
  "EffectiveEchoSpacing": 0.000580009,
  "FlipAngle": 64,
  "ImageOrientationPatientDICOM": [0.999688, -0.0240376, 0.00677748, 0.0244318, 0.88498, -0.464988],
  "ImageType": [
    "ORIGINAL",
    "PRIMARY",
    "M",
    "ND",
    "MOSAIC"
],
  "InPlanePhaseEncodingDirectionDICOM": "COL",
  "InstitutionAddress": "Chemin_des_Mines_9_Geneve_District_CH_1211",
  "InstitutionName": "Fondation_Campus_Biotech_Geneva",
  "InstitutionalDepartmentName": "Department",
  "MRAcquisitionType": "2D",
  "MagneticFieldStrength": 3,
  "Manufacturer": "Siemens",
  "ManufacturersModelName": "Prisma",
  "Modality": "MR",
  "MultibandAccelerationFactor": 4,
  "PartialFourier": 0.875,
  "PatientPosition": "HFS",
  "PercentPhaseFOV": 100,
  "PhaseEncodingDirection": "j-",
  "PhaseEncodingSteps": 95,
  "PhaseResolution": 1,
  "PixelBandwidth": 2205,
  "ProcedureStepDescription": "J.DRM_Michael",
  "ProtocolName": "Run5_bold_s4_TR1.28",
  "PulseSequenceDetails": "%SiemensSeq%_ep2d_bold",
  "ReceiveCoilActiveElements": "HC1-7;NC1,2",
  "ReceiveCoilName": "HeadNeck_64",
  "ReconMatrixPE": 108,
  "RepetitionTime": 1.28,
  "SAR": 0.0656048,
  "ScanOptions": "PFP_FS",
  "ScanningSequence": "EP",
  "SequenceName": "_epfid2d1_108",
  "SequenceVariant": "SK",
  "SeriesDescription": "Run5_bold_s4_TR1.28",
  "SeriesNumber": 11,
  "ShimSetting": [-1261, -11620, 6445, 429, 139, -94, -47, 24],
  "SliceThickness": 2,
  "SliceTiming": [0.9425, 0, 0.6275, 0.0775, 0.7075, 0.1575, 0.785, 0.235, 0.865, 0.3925, 1.0225, 0.47, 1.1, 0.55, 1.18, 0.315, 0.9425, 0, 0.6275, 0.0775, 0.7075, 0.1575, 0.785, 0.235, 0.865, 0.3925, 1.0225, 0.47, 1.1, 0.55, 1.18, 0.315, 0.9425, 0, 0.6275, 0.0775, 0.7075, 0.1575, 0.785, 0.235, 0.865, 0.3925, 1.0225, 0.47, 1.1, 0.55, 1.18, 0.315, 0.9425, 0, 0.6275, 0.0775, 0.7075, 0.1575, 0.785, 0.235, 0.865, 0.3925, 1.0225, 0.47, 1.1, 0.55, 1.18, 0.315],
  "SoftwareVersions": "syngo_MR_E11",
  "SpacingBetweenSlices": 2,
  "StationName": "AWP66054",
  "TaskName": "main",
  "TotalReadoutTime": 0.0620609,
  "TxRefAmp": 259.601,
  "dcmmeta_affine": [
    [-1.9901198148727417, 0.04863745719194412, -0.01035852450877428, 105.16938781738281],
    [0.047852590680122375, 1.7617651224136353, -0.9300176501274109, -69.26219177246094],
    [0.013492203317582607, 0.9256711006164551, 1.770581841468811, -91.74140167236328],
    [0.0, 0.0, 0.0, 1.0]
],
  "dcmmeta_reorient_transform": [
    [0.0, -1.0, 0.0, 107.0],
    [1.0, 0.0, 0.0, 0.0],
    [0.0, 0.0, 1.0, 0.0],
    [0.0, 0.0, 0.0, 1.0]
],
  "dcmmeta_shape": [108, 108, 64, 373],
  "dcmmeta_slice_dim": 2,
  "dcmmeta_version": 0.6,
  "global": {
    "const": {
      "AccessionNumber": "",
      "AcquisitionMatrix": [108, 0, 0, 108],
      "AngioFlag": "N",
      "BitsAllocated": 16,
      "BitsStored": 12,
      "BodyPartExamined": "BRAIN",
      "Columns": 864,
      "EchoNumbers": 1,
      "EchoTime": 31.0,
      "EchoTrainLength": 95,
      "FlipAngle": 64.0,
      "HighBit": 11,
      "ImageOrientationPatient": [0.99968808162804, -0.024037579634, 0.00677747860172, 0.02443183775689, 0.88497965544553, -0.4649882737783],
      "ImagePositionPatient": [-881.02385180944, -767.10559475818, 352.10903559459],
      "ImageType": [
        "ORIGINAL",
        "PRIMARY",
        "M",
        "ND",
        "MOSAIC"
],
      "ImagedNucleus": "1H",
      "ImagingFrequency": 123.257353,
      "InPlanePhaseEncodingDirection": "COL",
      "MRAcquisitionType": "2D",
      "MagneticFieldStrength": 3.0,
      "Manufacturer": "SIEMENS",
      "ManufacturerModelName": "Prisma",
      "Modality": "MR",
      "NumberOfAverages": 1.0,
      "NumberOfPhaseEncodingSteps": 95,
      "PercentPhaseFieldOfView": 100.0,
      "PercentSampling": 100.0,
      "PerformedProcedureStepStartTime": "112135.074000",
      "PhotometricInterpretation": "MONOCHROME2",
      "PixelBandwidth": 2205.0,
      "PixelRepresentation": 0,
      "PixelSpacing": [1.990740776062, 1.990740776062],
      "PositionReferenceIndicator": "",
      "ProtocolName": "Run5_bold_s4_TR1.28",
      "RepetitionTime": 1280.0,
      "Rows": 864,
      "SAR": 0.06560481640429,
      "SamplesPerPixel": 1,
      "ScanOptions": [
        "PFP",
        "FS"
],
      "ScanningSequence": "EP",
      "SequenceName": "*epfid2d1_108",
      "SequenceVariant": "SK",
      "SeriesDescription": "Run5_bold_s4_TR1.28",
      "SeriesNumber": 11,
      "SeriesTime": "121536.887000",
      "SliceLocation": -49.554998331982,
      "SliceThickness": 2.0,
      "SmallestImagePixelValue": 0,
      "SoftwareVersions": "syngo MR E11",
      "SpacingBetweenSlices": 2.0000000160041,
      "SpecificCharacterSet": "ISO_IR 100",
      "StudyID": "1",
      "StudyTime": "112135.014000",
      "TransmitCoilName": "Body",
      "VariableFlipAngleFlag": "N",
      "WindowCenterWidthExplanation": "Algo1",
      "dBdt": 0.0},
    "slices": {}
  },
  "time": {
    "samples": {
      "AcquisitionNumber": [1, 2, 3, 4, 5, 6, 7, 8, 9, 10, 11, 12, 13, 14, 15, 16, 17, 18, 19, 20, 21, 22, 23, 24, 25, 26, 27, 28, 29, 30, 31, 32, 33, 34, 35, 36, 37, 38, 39, 40, 41, 42, 43, 44, 45, 46, 47, 48, 49, 50, 51, 52, 53, 54, 55, 56, 57, 58, 59, 60, 61, 62, 63, 64, 65, 66, 67, 68, 69, 70, 71, 72, 73, 74, 75, 76, 77, 78, 79, 80, 81, 82, 83, 84, 85, 86, 87, 88, 89, 90, 91, 92, 93, 94, 95, 96, 97, 98, 99, 100, 101, 102, 103, 104, 105, 106, 107, 108, 109, 110, 111, 112, 113, 114, 115, 116, 117, 118, 119, 120, 121, 122, 123, 124, 125, 126, 127, 128, 129, 130, 131, 132, 133, 134, 135, 136, 137, 138, 139, 140, 141, 142, 143, 144, 145, 146, 147, 148, 149, 150, 151, 152, 153, 154, 155, 156, 157, 158, 159, 160, 161, 162, 163, 164, 165, 166, 167, 168, 169, 170, 171, 172, 173, 174, 175, 176, 177, 178, 179, 180, 181, 182, 183, 184, 185, 186, 187, 188, 189, 190, 191, 192, 193, 194, 195, 196, 197, 198, 199, 200, 201, 202, 203, 204, 205, 206, 207, 208, 209, 210, 211, 212, 213, 214, 215, 216, 217, 218, 219, 220, 221, 222, 223, 224, 225, 226, 227, 228, 229, 230, 231, 232, 233, 234, 235, 236, 237, 238, 239, 240, 241, 242, 243, 244, 245, 246, 247, 248, 249, 250, 251, 252, 253, 254, 255, 256, 257, 258, 259, 260, 261, 262, 263, 264, 265, 266, 267, 268, 269, 270, 271, 272, 273, 274, 275, 276, 277, 278, 279, 280, 281, 282, 283, 284, 285, 286, 287, 288, 289, 290, 291, 292, 293, 294, 295, 296, 297, 298, 299, 300, 301, 302, 303, 304, 305, 306, 307, 308, 309, 310, 311, 312, 313, 314, 315, 316, 317, 318, 319, 320, 321, 322, 323, 324, 325, 326, 327, 328, 329, 330, 331, 332, 333, 334, 335, 336, 337, 338, 339, 340, 341, 342, 343, 344, 345, 346, 347, 348, 349, 350, 351, 352, 353, 354, 355, 356, 357, 358, 359, 360, 361, 362, 363, 364, 365, 366, 367, 368, 369, 370, 371, 372, 373],
      "AcquisitionTime": ["121455.610000", "121456.890000", "121458.170000", "121459.450000", "121500.730000", "121502.010000", "121503.290000", "121504.570000", "121505.850000", "121507.130000", "121508.410000", "121509.690000", "121510.970000", "121512.250000", "121513.530000", "121514.810000", "121516.090000", "121517.370000", "121518.650000", "121519.930000", "121521.210000", "121522.490000", "121523.770000", "121525.050000", "121526.330000", "121527.610000", "121528.890000", "121530.170000", "121531.450000", "121532.730000", "121534.010000", "121535.290000", "121536.570000", "121537.850000", "121539.130000", "121540.410000", "121541.690000", "121542.970000", "121544.250000", "121545.530000", "121546.810000", "121548.090000", "121549.370000", "121550.650000", "121551.930000", "121553.210000", "121554.490000", "121555.770000", "121557.050000", "121558.330000", "121559.610000", "121600.890000", "121602.170000", "121603.450000", "121604.730000", "121606.010000", "121607.290000", "121608.570000", "121609.850000", "121611.130000", "121612.410000", "121613.690000", "121614.970000", "121616.250000", "121617.530000", "121618.810000", "121620.090000", "121621.370000", "121622.650000", "121623.930000", "121625.210000", "121626.490000", "121627.770000", "121629.050000", "121630.330000", "121631.610000", "121632.890000", "121634.170000", "121635.450000", "121636.730000", "121638.010000", "121639.290000", "121640.570000", "121641.850000", "121643.130000", "121644.410000", "121645.690000", "121646.970000", "121648.250000", "121649.530000", "121650.810000", "121652.090000", "121653.370000", "121654.650000", "121655.930000", "121657.210000", "121658.490000", "121659.770000", "121701.050000", "121702.330000", "121703.610000", "121704.890000", "121706.170000", "121707.450000", "121708.730000", "121710.010000", "121711.290000", "121712.570000", "121713.850000", "121715.130000", "121716.410000", "121717.690000", "121718.970000", "121720.250000", "121721.530000", "121722.810000", "121724.090000", "121725.370000", "121726.650000", "121727.930000", "121729.210000", "121730.490000", "121731.770000", "121733.050000", "121734.330000", "121735.610000", "121736.890000", "121738.170000", "121739.450000", "121740.730000", "121742.010000", "121743.290000", "121744.570000", "121745.850000", "121747.130000", "121748.410000", "121749.690000", "121750.970000", "121752.250000", "121753.530000", "121754.810000", "121756.090000", "121757.370000", "121758.650000", "121759.930000", "121801.210000", "121802.490000", "121803.770000", "121805.050000", "121806.330000", "121807.610000", "121808.890000", "121810.170000", "121811.450000", "121812.730000", "121814.010000", "121815.290000", "121816.570000", "121817.850000", "121819.130000", "121820.410000", "121821.690000", "121822.970000", "121824.250000", "121825.530000", "121826.810000", "121828.090000", "121829.370000", "121830.650000", "121831.930000", "121833.210000", "121834.490000", "121835.770000", "121837.050000", "121838.330000", "121839.610000", "121840.890000", "121842.170000", "121843.450000", "121844.730000", "121846.010000", "121847.290000", "121848.570000", "121849.850000", "121851.130000", "121852.410000", "121853.690000", "121854.970000", "121856.250000", "121857.530000", "121858.810000", "121900.090000", "121901.370000", "121902.650000", "121903.930000", "121905.210000", "121906.490000", "121907.770000", "121909.050000", "121910.330000", "121911.610000", "121912.890000", "121914.170000", "121915.450000", "121916.730000", "121918.010000", "121919.290000", "121920.570000", "121921.850000", "121923.130000", "121924.410000", "121925.690000", "121926.970000", "121928.250000", "121929.530000", "121930.810000", "121932.090000", "121933.370000", "121934.650000", "121935.930000", "121937.210000", "121938.490000", "121939.770000", "121941.050000", "121942.330000", "121943.610000", "121944.890000", "121946.170000", "121947.450000", "121948.730000", "121950.010000", "121951.290000", "121952.570000", "121953.850000", "121955.130000", "121956.410000", "121957.690000", "121958.970000", "122000.250000", "122001.530000", "122002.810000", "122004.090000", "122005.370000", "122006.650000", "122007.930000", "122009.210000", "122010.490000", "122011.770000", "122013.050000", "122014.330000", "122015.610000", "122016.890000", "122018.170000", "122019.450000", "122020.730000", "122022.010000", "122023.290000", "122024.570000", "122025.850000", "122027.130000", "122028.410000", "122029.690000", "122030.970000", "122032.250000", "122033.530000", "122034.810000", "122036.090000", "122037.370000", "122038.650000", "122039.930000", "122041.210000", "122042.490000", "122043.770000", "122045.050000", "122046.330000", "122047.610000", "122048.890000", "122050.170000", "122051.450000", "122052.730000", "122054.010000", "122055.290000", "122056.570000", "122057.850000", "122059.130000", "122100.410000", "122101.690000", "122102.970000", "122104.250000", "122105.530000", "122106.810000", "122108.090000", "122109.370000", "122110.650000", "122111.930000", "122113.210000", "122114.490000", "122115.770000", "122117.050000", "122118.330000", "122119.610000", "122120.890000", "122122.170000", "122123.450000", "122124.730000", "122126.010000", "122127.290000", "122128.570000", "122129.850000", "122131.130000", "122132.410000", "122133.690000", "122134.970000", "122136.250000", "122137.530000", "122138.810000", "122140.090000", "122141.370000", "122142.650000", "122143.930000", "122145.210000", "122146.490000", "122147.770000", "122149.050000", "122150.330000", "122151.610000", "122152.890000", "122154.170000", "122155.450000", "122156.730000", "122158.010000", "122159.290000", "122200.570000", "122201.850000", "122203.130000", "122204.410000", "122205.690000", "122206.970000", "122208.250000", "122209.530000", "122210.810000", "122212.090000", "122213.370000", "122214.650000", "122215.930000", "122217.210000", "122218.490000", "122219.770000", "122221.050000", "122222.330000", "122223.610000", "122224.890000", "122226.170000", "122227.450000", "122228.730000", "122230.010000", "122231.290000", "122232.570000", "122233.850000", "122235.130000", "122236.410000", "122237.690000", "122238.970000", "122240.250000", "122241.530000", "122242.810000", "122244.090000", "122245.370000", "122246.650000", "122247.930000", "122249.210000", "122250.490000", "122251.770000"],
      "ContentTime": ["121536.891000", "121536.894000", "121536.897000", "121536.900000", "121536.907000", "121536.910000", "121536.913000", "121536.916000", "121536.919000", "121536.921000", "121536.924000", "121536.927000", "121536.930000", "121536.933000", "121536.936000", "121536.939000", "121536.942000", "121536.944000", "121536.947000", "121536.950000", "121536.953000", "121536.956000", "121536.959000", "121536.962000", "121536.965000", "121536.968000", "121536.970000", "121536.976000", "121536.979000", "121536.981000", "121536.984000", "121536.987000", "121616.887000", "121616.890000", "121616.893000", "121616.896000", "121616.899000", "121616.902000", "121616.904000", "121616.907000", "121616.910000", "121616.913000", "121616.916000", "121616.920000", "121616.923000", "121616.926000", "121616.929000", "121616.932000", "121616.935000", "121616.938000", "121616.940000", "121616.943000", "121616.946000", "121616.949000", "121616.952000", "121616.955000", "121616.958000", "121616.960000", "121616.963000", "121616.966000", "121616.969000", "121616.972000", "121616.975000", "121656.887000", "121656.890000", "121656.893000", "121656.896000", "121656.899000", "121656.901000", "121656.904000", "121656.907000", "121656.910000", "121656.913000", "121656.916000", "121656.919000", "121656.921000", "121656.924000", "121656.927000", "121656.930000", "121656.933000", "121656.936000", "121656.939000", "121656.942000", "121656.944000", "121656.947000", "121656.950000", "121656.953000", "121656.956000", "121656.959000", "121656.962000", "121656.965000", "121656.968000", "121656.971000", "121656.974000", "121736.887000", "121736.890000", "121736.893000", "121736.896000", "121736.899000", "121736.902000", "121736.905000", "121736.907000", "121736.910000", "121736.913000", "121736.916000", "121736.919000", "121736.922000", "121736.925000", "121736.928000", "121736.931000", "121736.934000", "121736.936000", "121736.939000", "121736.942000", "121736.945000", "121736.960000", "121736.963000", "121736.966000", "121736.968000", "121736.971000", "121736.974000", "121736.977000", "121736.980000", "121736.983000", "121736.986000", "121736.989000", "121816.886000", "121816.889000", "121816.892000", "121816.895000", "121816.898000", "121816.901000", "121816.904000", "121816.906000", "121816.909000", "121816.912000", "121816.915000", "121816.918000", "121816.921000", "121816.924000", "121816.927000", "121816.929000", "121816.932000", "121816.935000", "121816.938000", "121816.941000", "121816.944000", "121816.947000", "121816.949000", "121816.952000", "121816.955000", "121816.958000", "121816.961000", "121816.964000", "121816.967000", "121816.970000", "121816.973000", "121856.887000", "121856.891000", "121856.894000", "121856.897000", "121856.900000", "121856.903000", "121856.906000", "121856.909000", "121856.912000", "121856.915000", "121856.919000", "121856.922000", "121856.925000", "121856.928000", "121856.930000", "121856.933000", "121856.936000", "121856.939000", "121856.942000", "121856.945000", "121856.948000", "121856.951000", "121856.954000", "121856.956000", "121856.959000", "121856.962000", "121856.965000", "121856.968000", "121856.971000", "121856.974000", "121856.977000", "121936.887000", "121936.895000", "121936.898000", "121936.901000", "121936.904000", "121936.907000", "121936.910000", "121936.913000", "121936.916000", "121936.919000", "121936.921000", "121936.924000", "121936.927000", "121936.930000", "121936.933000", "121936.936000", "121936.939000", "121936.942000", "121936.945000", "121936.948000", "121936.951000", "121936.954000", "121936.957000", "121936.959000", "121936.962000", "121936.965000", "121936.968000", "121936.971000", "121936.974000", "121936.977000", "121936.980000", "122016.886000", "122016.889000", "122016.892000", "122016.895000", "122016.898000", "122016.901000", "122016.903000", "122016.906000", "122016.909000", "122016.912000", "122016.915000", "122016.918000", "122016.921000", "122016.924000", "122016.926000", "122016.929000", "122016.932000", "122016.935000", "122016.938000", "122016.941000", "122016.944000", "122016.947000", "122016.949000", "122016.952000", "122016.955000", "122016.958000", "122016.961000", "122016.964000", "122016.967000", "122016.970000", "122016.973000", "122016.976000", "122056.887000", "122056.890000", "122056.893000", "122056.896000", "122056.899000", "122056.902000", "122056.905000", "122056.908000", "122056.996000", "122056.999000", "122057.002000", "122057.005000", "122057.008000", "122057.011000", "122057.014000", "122057.017000", "122057.020000", "122057.023000", "122057.025000", "122057.028000", "122057.031000", "122057.042000", "122057.045000", "122057.047000", "122057.050000", "122057.053000", "122057.056000", "122057.059000", "122057.062000", "122057.065000", "122057.068000", "122136.887000", "122136.890000", "122136.893000", "122136.896000", "122136.899000", "122136.902000", "122136.905000", "122136.908000", "122136.911000", "122136.913000", "122136.916000", "122136.919000", "122136.923000", "122136.927000", "122136.929000", "122136.932000", "122136.935000", "122136.938000", "122136.941000", "122136.944000", "122136.947000", "122136.950000", "122136.952000", "122136.955000", "122136.970000", "122136.973000", "122136.976000", "122136.979000", "122136.981000", "122136.984000", "122136.987000", "122216.887000", "122216.890000", "122216.893000", "122216.896000", "122216.899000", "122216.902000", "122216.905000", "122216.908000", "122216.911000", "122216.913000", "122216.916000", "122216.919000", "122216.922000", "122216.925000", "122216.928000", "122216.931000", "122216.934000", "122216.936000", "122216.939000", "122216.942000", "122216.945000", "122216.948000", "122216.951000", "122216.954000", "122216.957000", "122216.960000", "122216.962000", "122216.965000", "122216.968000", "122216.971000", "122216.974000", "122252.918000", "122252.922000", "122252.925000", "122252.928000", "122252.931000", "122252.935000", "122252.939000", "122252.943000", "122252.947000", "122252.950000", "122252.953000", "122252.956000", "122252.959000", "122252.962000", "122252.966000", "122252.969000", "122252.971000", "122252.974000", "122252.977000", "122252.980000", "122252.983000", "122252.987000", "122252.990000", "122252.994000", "122252.997000", "122253.001000", "122253.006000", "122253.009000", "122253.013000"],
      "InstanceCreationTime": ["121536.891000", "121536.894000", "121536.897000", "121536.900000", "121536.907000", "121536.910000", "121536.913000", "121536.916000", "121536.919000", "121536.921000", "121536.924000", "121536.927000", "121536.930000", "121536.933000", "121536.936000", "121536.939000", "121536.942000", "121536.944000", "121536.947000", "121536.950000", "121536.953000", "121536.956000", "121536.959000", "121536.962000", "121536.965000", "121536.968000", "121536.970000", "121536.976000", "121536.979000", "121536.981000", "121536.984000", "121536.987000", "121616.887000", "121616.890000", "121616.893000", "121616.896000", "121616.899000", "121616.902000", "121616.904000", "121616.907000", "121616.910000", "121616.913000", "121616.916000", "121616.920000", "121616.923000", "121616.926000", "121616.929000", "121616.932000", "121616.935000", "121616.938000", "121616.940000", "121616.943000", "121616.946000", "121616.949000", "121616.952000", "121616.955000", "121616.958000", "121616.960000", "121616.963000", "121616.966000", "121616.969000", "121616.972000", "121616.975000", "121656.887000", "121656.890000", "121656.893000", "121656.896000", "121656.899000", "121656.901000", "121656.904000", "121656.907000", "121656.910000", "121656.913000", "121656.916000", "121656.919000", "121656.921000", "121656.924000", "121656.927000", "121656.930000", "121656.933000", "121656.936000", "121656.939000", "121656.942000", "121656.944000", "121656.947000", "121656.950000", "121656.953000", "121656.956000", "121656.959000", "121656.962000", "121656.965000", "121656.968000", "121656.971000", "121656.974000", "121736.887000", "121736.890000", "121736.893000", "121736.896000", "121736.899000", "121736.902000", "121736.905000", "121736.907000", "121736.910000", "121736.913000", "121736.916000", "121736.919000", "121736.922000", "121736.925000", "121736.928000", "121736.931000", "121736.934000", "121736.936000", "121736.939000", "121736.942000", "121736.945000", "121736.960000", "121736.963000", "121736.966000", "121736.968000", "121736.971000", "121736.974000", "121736.977000", "121736.980000", "121736.983000", "121736.986000", "121736.989000", "121816.886000", "121816.889000", "121816.892000", "121816.895000", "121816.898000", "121816.901000", "121816.904000", "121816.906000", "121816.909000", "121816.912000", "121816.915000", "121816.918000", "121816.921000", "121816.924000", "121816.927000", "121816.929000", "121816.932000", "121816.935000", "121816.938000", "121816.941000", "121816.944000", "121816.947000", "121816.949000", "121816.952000", "121816.955000", "121816.958000", "121816.961000", "121816.964000", "121816.967000", "121816.970000", "121816.973000", "121856.887000", "121856.891000", "121856.894000", "121856.897000", "121856.900000", "121856.903000", "121856.906000", "121856.909000", "121856.912000", "121856.915000", "121856.919000", "121856.922000", "121856.925000", "121856.928000", "121856.930000", "121856.933000", "121856.936000", "121856.939000", "121856.942000", "121856.945000", "121856.948000", "121856.951000", "121856.954000", "121856.956000", "121856.959000", "121856.962000", "121856.965000", "121856.968000", "121856.971000", "121856.974000", "121856.977000", "121936.887000", "121936.895000", "121936.898000", "121936.901000", "121936.904000", "121936.907000", "121936.910000", "121936.913000", "121936.916000", "121936.919000", "121936.921000", "121936.924000", "121936.927000", "121936.930000", "121936.933000", "121936.936000", "121936.939000", "121936.942000", "121936.945000", "121936.948000", "121936.951000", "121936.954000", "121936.957000", "121936.959000", "121936.962000", "121936.965000", "121936.968000", "121936.971000", "121936.974000", "121936.977000", "121936.980000", "122016.886000", "122016.889000", "122016.892000", "122016.895000", "122016.898000", "122016.901000", "122016.903000", "122016.906000", "122016.909000", "122016.912000", "122016.915000", "122016.918000", "122016.921000", "122016.924000", "122016.926000", "122016.929000", "122016.932000", "122016.935000", "122016.938000", "122016.941000", "122016.944000", "122016.947000", "122016.949000", "122016.952000", "122016.955000", "122016.958000", "122016.961000", "122016.964000", "122016.967000", "122016.970000", "122016.973000", "122016.976000", "122056.887000", "122056.890000", "122056.893000", "122056.896000", "122056.899000", "122056.902000", "122056.905000", "122056.908000", "122056.996000", "122056.999000", "122057.002000", "122057.005000", "122057.008000", "122057.011000", "122057.014000", "122057.017000", "122057.020000", "122057.023000", "122057.025000", "122057.028000", "122057.031000", "122057.042000", "122057.045000", "122057.047000", "122057.050000", "122057.053000", "122057.056000", "122057.059000", "122057.062000", "122057.065000", "122057.068000", "122136.887000", "122136.890000", "122136.893000", "122136.896000", "122136.899000", "122136.902000", "122136.905000", "122136.908000", "122136.911000", "122136.913000", "122136.916000", "122136.919000", "122136.923000", "122136.927000", "122136.929000", "122136.932000", "122136.935000", "122136.938000", "122136.941000", "122136.944000", "122136.947000", "122136.950000", "122136.952000", "122136.955000", "122136.970000", "122136.973000", "122136.976000", "122136.979000", "122136.981000", "122136.984000", "122136.987000", "122216.887000", "122216.890000", "122216.893000", "122216.896000", "122216.899000", "122216.902000", "122216.905000", "122216.908000", "122216.911000", "122216.913000", "122216.916000", "122216.919000", "122216.922000", "122216.925000", "122216.928000", "122216.931000", "122216.934000", "122216.936000", "122216.939000", "122216.942000", "122216.945000", "122216.948000", "122216.951000", "122216.954000", "122216.957000", "122216.960000", "122216.962000", "122216.965000", "122216.968000", "122216.971000", "122216.974000", "122252.918000", "122252.922000", "122252.925000", "122252.928000", "122252.931000", "122252.935000", "122252.939000", "122252.943000", "122252.947000", "122252.950000", "122252.953000", "122252.956000", "122252.959000", "122252.962000", "122252.966000", "122252.969000", "122252.971000", "122252.974000", "122252.977000", "122252.980000", "122252.983000", "122252.987000", "122252.990000", "122252.994000", "122252.997000", "122253.001000", "122253.006000", "122253.009000", "122253.013000"],
      "InstanceNumber": [1, 2, 3, 4, 5, 6, 7, 8, 9, 10, 11, 12, 13, 14, 15, 16, 17, 18, 19, 20, 21, 22, 23, 24, 25, 26, 27, 28, 29, 30, 31, 32, 33, 34, 35, 36, 37, 38, 39, 40, 41, 42, 43, 44, 45, 46, 47, 48, 49, 50, 51, 52, 53, 54, 55, 56, 57, 58, 59, 60, 61, 62, 63, 64, 65, 66, 67, 68, 69, 70, 71, 72, 73, 74, 75, 76, 77, 78, 79, 80, 81, 82, 83, 84, 85, 86, 87, 88, 89, 90, 91, 92, 93, 94, 95, 96, 97, 98, 99, 100, 101, 102, 103, 104, 105, 106, 107, 108, 109, 110, 111, 112, 113, 114, 115, 116, 117, 118, 119, 120, 121, 122, 123, 124, 125, 126, 127, 128, 129, 130, 131, 132, 133, 134, 135, 136, 137, 138, 139, 140, 141, 142, 143, 144, 145, 146, 147, 148, 149, 150, 151, 152, 153, 154, 155, 156, 157, 158, 159, 160, 161, 162, 163, 164, 165, 166, 167, 168, 169, 170, 171, 172, 173, 174, 175, 176, 177, 178, 179, 180, 181, 182, 183, 184, 185, 186, 187, 188, 189, 190, 191, 192, 193, 194, 195, 196, 197, 198, 199, 200, 201, 202, 203, 204, 205, 206, 207, 208, 209, 210, 211, 212, 213, 214, 215, 216, 217, 218, 219, 220, 221, 222, 223, 224, 225, 226, 227, 228, 229, 230, 231, 232, 233, 234, 235, 236, 237, 238, 239, 240, 241, 242, 243, 244, 245, 246, 247, 248, 249, 250, 251, 252, 253, 254, 255, 256, 257, 258, 259, 260, 261, 262, 263, 264, 265, 266, 267, 268, 269, 270, 271, 272, 273, 274, 275, 276, 277, 278, 279, 280, 281, 282, 283, 284, 285, 286, 287, 288, 289, 290, 291, 292, 293, 294, 295, 296, 297, 298, 299, 300, 301, 302, 303, 304, 305, 306, 307, 308, 309, 310, 311, 312, 313, 314, 315, 316, 317, 318, 319, 320, 321, 322, 323, 324, 325, 326, 327, 328, 329, 330, 331, 332, 333, 334, 335, 336, 337, 338, 339, 340, 341, 342, 343, 344, 345, 346, 347, 348, 349, 350, 351, 352, 353, 354, 355, 356, 357, 358, 359, 360, 361, 362, 363, 364, 365, 366, 367, 368, 369, 370, 371, 372, 373],
