{
  "AcquisitionMatrixPE": 108,
  "AcquisitionNumber": 1,
  "AcquisitionTime": "11:49:16.830000",
  "BandwidthPerPixelPhaseEncode": 15.964,
  "BaseResolution": 108,
  "BodyPartExamined": "BRAIN",
  "ConsistencyInfo": "N4_VE11C_LATEST_20160120",
  "ConversionSoftware": "dcm2niix",
  "ConversionSoftwareVersion": "v1.0.20180622 GCC6.3.0",
  "DerivedVendorReportedEchoSpacing": 0.000580009,
  "DeviceSerialNumber": "66054",
  "DwellTime": 2.1e-06,
  "EchoTime": 0.031,
  "EchoTrainLength": 95,
  "EffectiveEchoSpacing": 0.000580009,
  "FlipAngle": 64,
  "ImageOrientationPatientDICOM": [0.999688, -0.0240376, 0.00677748, 0.0244318, 0.88498, -0.464988],
  "ImageType": [
    "ORIGINAL",
    "PRIMARY",
    "M",
    "ND",
    "MOSAIC"
],
  "InPlanePhaseEncodingDirectionDICOM": "COL",
  "InstitutionAddress": "Chemin_des_Mines_9_Geneve_District_CH_1211",
  "InstitutionName": "Fondation_Campus_Biotech_Geneva",
  "InstitutionalDepartmentName": "Department",
  "MRAcquisitionType": "2D",
  "MagneticFieldStrength": 3,
  "Manufacturer": "Siemens",
  "ManufacturersModelName": "Prisma",
  "Modality": "MR",
  "MultibandAccelerationFactor": 4,
  "PartialFourier": 0.875,
  "PatientPosition": "HFS",
  "PercentPhaseFOV": 100,
  "PhaseEncodingDirection": "j-",
  "PhaseEncodingSteps": 95,
  "PhaseResolution": 1,
  "PixelBandwidth": 2205,
  "ProcedureStepDescription": "J.DRM_Michael",
  "ProtocolName": "Run3_bold_s4_TR1.28",
  "PulseSequenceDetails": "%SiemensSeq%_ep2d_bold",
  "ReceiveCoilActiveElements": "HC1-7;NC1,2",
  "ReceiveCoilName": "HeadNeck_64",
  "ReconMatrixPE": 108,
  "RepetitionTime": 1.28,
  "SAR": 0.0656048,
  "ScanOptions": "PFP_FS",
  "ScanningSequence": "EP",
  "SequenceName": "_epfid2d1_108",
  "SequenceVariant": "SK",
  "SeriesDescription": "Run3_bold_s4_TR1.28",
  "SeriesNumber": 8,
  "ShimSetting": [-1261, -11620, 6445, 429, 139, -94, -47, 24],
  "SliceThickness": 2,
  "SliceTiming": [0.945, 0, 0.63, 0.0775, 0.7075, 0.1575, 0.7875, 0.235, 0.865, 0.3925, 1.0225, 0.4725, 1.1025, 0.55, 1.18, 0.315, 0.945, 0, 0.63, 0.0775, 0.7075, 0.1575, 0.7875, 0.235, 0.865, 0.3925, 1.0225, 0.4725, 1.1025, 0.55, 1.18, 0.315, 0.945, 0, 0.63, 0.0775, 0.7075, 0.1575, 0.7875, 0.235, 0.865, 0.3925, 1.0225, 0.4725, 1.1025, 0.55, 1.18, 0.315, 0.945, 0, 0.63, 0.0775, 0.7075, 0.1575, 0.7875, 0.235, 0.865, 0.3925, 1.0225, 0.4725, 1.1025, 0.55, 1.18, 0.315],
  "SoftwareVersions": "syngo_MR_E11",
  "SpacingBetweenSlices": 2,
  "StationName": "AWP66054",
  "TaskName": "main",
  "TotalReadoutTime": 0.0620609,
  "TxRefAmp": 259.601,
  "dcmmeta_affine": [
    [-1.9901198148727417, 0.04863745719194412, -0.01035852450877428, 105.16938781738281],
    [0.047852590680122375, 1.7617651224136353, -0.9300176501274109, -69.26219177246094],
    [0.013492203317582607, 0.9256711006164551, 1.770581841468811, -91.74140167236328],
    [0.0, 0.0, 0.0, 1.0]
],
  "dcmmeta_reorient_transform": [
    [0.0, -1.0, 0.0, 107.0],
    [1.0, 0.0, 0.0, 0.0],
    [0.0, 0.0, 1.0, 0.0],
    [0.0, 0.0, 0.0, 1.0]
],
  "dcmmeta_shape": [108, 108, 64, 373],
  "dcmmeta_slice_dim": 2,
  "dcmmeta_version": 0.6,
  "global": {
    "const": {
      "AccessionNumber": "",
      "AcquisitionMatrix": [108, 0, 0, 108],
      "AngioFlag": "N",
      "BitsAllocated": 16,
      "BitsStored": 12,
      "BodyPartExamined": "BRAIN",
      "Columns": 864,
      "EchoNumbers": 1,
      "EchoTime": 31.0,
      "EchoTrainLength": 95,
      "FlipAngle": 64.0,
      "HighBit": 11,
      "ImageOrientationPatient": [0.99968808162804, -0.024037579634, 0.00677747860172, 0.02443183775689, 0.88497965544553, -0.4649882737783],
      "ImagePositionPatient": [-881.02385180944, -767.10559475818, 352.10903559459],
      "ImageType": [
        "ORIGINAL",
        "PRIMARY",
        "M",
        "ND",
        "MOSAIC"
],
      "ImagedNucleus": "1H",
      "ImagingFrequency": 123.257341,
      "InPlanePhaseEncodingDirection": "COL",
      "MRAcquisitionType": "2D",
      "MagneticFieldStrength": 3.0,
      "Manufacturer": "SIEMENS",
      "ManufacturerModelName": "Prisma",
      "Modality": "MR",
      "NumberOfAverages": 1.0,
      "NumberOfPhaseEncodingSteps": 95,
      "PercentPhaseFieldOfView": 100.0,
      "PercentSampling": 100.0,
      "PerformedProcedureStepStartTime": "112135.074000",
      "PhotometricInterpretation": "MONOCHROME2",
      "PixelBandwidth": 2205.0,
      "PixelRepresentation": 0,
      "PixelSpacing": [1.990740776062, 1.990740776062],
      "PositionReferenceIndicator": "",
      "ProtocolName": "Run3_bold_s4_TR1.28",
      "RepetitionTime": 1280.0,
      "Rows": 864,
      "SAR": 0.06560481640429,
      "SamplesPerPixel": 1,
      "ScanOptions": [
        "PFP",
        "FS"
],
      "ScanningSequence": "EP",
      "SequenceName": "*epfid2d1_108",
      "SequenceVariant": "SK",
      "SeriesDescription": "Run3_bold_s4_TR1.28",
      "SeriesNumber": 8,
      "SeriesTime": "114956.887000",
      "SliceLocation": -49.554998331982,
      "SliceThickness": 2.0,
      "SmallestImagePixelValue": 0,
      "SoftwareVersions": "syngo MR E11",
      "SpacingBetweenSlices": 2.0000000160041,
      "SpecificCharacterSet": "ISO_IR 100",
      "StudyID": "1",
      "StudyTime": "112135.014000",
      "TransmitCoilName": "Body",
      "VariableFlipAngleFlag": "N",
      "WindowCenterWidthExplanation": "Algo1",
      "dBdt": 0.0},
    "slices": {}
  },
  "time": {
    "samples": {
      "AcquisitionNumber": [1, 2, 3, 4, 5, 6, 7, 8, 9, 10, 11, 12, 13, 14, 15, 16, 17, 18, 19, 20, 21, 22, 23, 24, 25, 26, 27, 28, 29, 30, 31, 32, 33, 34, 35, 36, 37, 38, 39, 40, 41, 42, 43, 44, 45, 46, 47, 48, 49, 50, 51, 52, 53, 54, 55, 56, 57, 58, 59, 60, 61, 62, 63, 64, 65, 66, 67, 68, 69, 70, 71, 72, 73, 74, 75, 76, 77, 78, 79, 80, 81, 82, 83, 84, 85, 86, 87, 88, 89, 90, 91, 92, 93, 94, 95, 96, 97, 98, 99, 100, 101, 102, 103, 104, 105, 106, 107, 108, 109, 110, 111, 112, 113, 114, 115, 116, 117, 118, 119, 120, 121, 122, 123, 124, 125, 126, 127, 128, 129, 130, 131, 132, 133, 134, 135, 136, 137, 138, 139, 140, 141, 142, 143, 144, 145, 146, 147, 148, 149, 150, 151, 152, 153, 154, 155, 156, 157, 158, 159, 160, 161, 162, 163, 164, 165, 166, 167, 168, 169, 170, 171, 172, 173, 174, 175, 176, 177, 178, 179, 180, 181, 182, 183, 184, 185, 186, 187, 188, 189, 190, 191, 192, 193, 194, 195, 196, 197, 198, 199, 200, 201, 202, 203, 204, 205, 206, 207, 208, 209, 210, 211, 212, 213, 214, 215, 216, 217, 218, 219, 220, 221, 222, 223, 224, 225, 226, 227, 228, 229, 230, 231, 232, 233, 234, 235, 236, 237, 238, 239, 240, 241, 242, 243, 244, 245, 246, 247, 248, 249, 250, 251, 252, 253, 254, 255, 256, 257, 258, 259, 260, 261, 262, 263, 264, 265, 266, 267, 268, 269, 270, 271, 272, 273, 274, 275, 276, 277, 278, 279, 280, 281, 282, 283, 284, 285, 286, 287, 288, 289, 290, 291, 292, 293, 294, 295, 296, 297, 298, 299, 300, 301, 302, 303, 304, 305, 306, 307, 308, 309, 310, 311, 312, 313, 314, 315, 316, 317, 318, 319, 320, 321, 322, 323, 324, 325, 326, 327, 328, 329, 330, 331, 332, 333, 334, 335, 336, 337, 338, 339, 340, 341, 342, 343, 344, 345, 346, 347, 348, 349, 350, 351, 352, 353, 354, 355, 356, 357, 358, 359, 360, 361, 362, 363, 364, 365, 366, 367, 368, 369, 370, 371, 372, 373],
      "AcquisitionTime": ["114916.830000", "114918.110000", "114919.390000", "114920.670000", "114921.950000", "114923.230000", "114924.510000", "114925.790000", "114927.070000", "114928.350000", "114929.630000", "114930.910000", "114932.190000", "114933.470000", "114934.750000", "114936.030000", "114937.310000", "114938.590000", "114939.870000", "114941.150000", "114942.430000", "114943.710000", "114944.990000", "114946.270000", "114947.550000", "114948.830000", "114950.110000", "114951.390000", "114952.670000", "114953.950000", "114955.230000", "114956.510000", "114957.790000", "114959.070000", "115000.350000", "115001.630000", "115002.910000", "115004.190000", "115005.470000", "115006.750000", "115008.030000", "115009.310000", "115010.590000", "115011.870000", "115013.150000", "115014.430000", "115015.710000", "115016.990000", "115018.270000", "115019.550000", "115020.830000", "115022.110000", "115023.390000", "115024.670000", "115025.950000", "115027.230000", "115028.510000", "115029.790000", "115031.070000", "115032.350000", "115033.630000", "115034.910000", "115036.190000", "115037.470000", "115038.750000", "115040.030000", "115041.310000", "115042.590000", "115043.870000", "115045.150000", "115046.430000", "115047.710000", "115048.990000", "115050.270000", "115051.550000", "115052.830000", "115054.110000", "115055.390000", "115056.670000", "115057.950000", "115059.230000", "115100.510000", "115101.790000", "115103.070000", "115104.350000", "115105.630000", "115106.910000", "115108.190000", "115109.470000", "115110.750000", "115112.030000", "115113.310000", "115114.590000", "115115.870000", "115117.150000", "115118.430000", "115119.710000", "115120.990000", "115122.270000", "115123.550000", "115124.830000", "115126.110000", "115127.390000", "115128.670000", "115129.950000", "115131.230000", "115132.510000", "115133.790000", "115135.070000", "115136.350000", "115137.630000", "115138.910000", "115140.190000", "115141.470000", "115142.750000", "115144.030000", "115145.310000", "115146.590000", "115147.870000", "115149.150000", "115150.430000", "115151.710000", "115152.990000", "115154.270000", "115155.550000", "115156.830000", "115158.110000", "115159.390000", "115200.670000", "115201.950000", "115203.230000", "115204.510000", "115205.790000", "115207.070000", "115208.350000", "115209.630000", "115210.910000", "115212.190000", "115213.470000", "115214.750000", "115216.030000", "115217.310000", "115218.590000", "115219.870000", "115221.150000", "115222.430000", "115223.710000", "115224.990000", "115226.270000", "115227.550000", "115228.830000", "115230.110000", "115231.390000", "115232.670000", "115233.950000", "115235.230000", "115236.510000", "115237.790000", "115239.070000", "115240.350000", "115241.630000", "115242.910000", "115244.190000", "115245.470000", "115246.750000", "115248.030000", "115249.310000", "115250.590000", "115251.870000", "115253.150000", "115254.430000", "115255.710000", "115256.990000", "115258.270000", "115259.550000", "115300.830000", "115302.110000", "115303.390000", "115304.670000", "115305.950000", "115307.230000", "115308.510000", "115309.790000", "115311.070000", "115312.350000", "115313.630000", "115314.910000", "115316.190000", "115317.470000", "115318.750000", "115320.030000", "115321.310000", "115322.590000", "115323.870000", "115325.150000", "115326.430000", "115327.710000", "115328.990000", "115330.270000", "115331.550000", "115332.830000", "115334.110000", "115335.390000", "115336.670000", "115337.950000", "115339.230000", "115340.510000", "115341.790000", "115343.070000", "115344.350000", "115345.630000", "115346.910000", "115348.190000", "115349.470000", "115350.750000", "115352.030000", "115353.310000", "115354.590000", "115355.870000", "115357.150000", "115358.430000", "115359.710000", "115400.990000", "115402.270000", "115403.550000", "115404.830000", "115406.110000", "115407.390000", "115408.670000", "115409.950000", "115411.230000", "115412.510000", "115413.790000", "115415.070000", "115416.350000", "115417.630000", "115418.910000", "115420.190000", "115421.470000", "115422.750000", "115424.030000", "115425.310000", "115426.590000", "115427.870000", "115429.150000", "115430.430000", "115431.710000", "115432.990000", "115434.270000", "115435.550000", "115436.830000", "115438.110000", "115439.390000", "115440.670000", "115441.950000", "115443.230000", "115444.510000", "115445.790000", "115447.070000", "115448.350000", "115449.630000", "115450.910000", "115452.190000", "115453.470000", "115454.750000", "115456.030000", "115457.310000", "115458.590000", "115459.870000", "115501.150000", "115502.430000", "115503.710000", "115504.990000", "115506.270000", "115507.550000", "115508.830000", "115510.110000", "115511.390000", "115512.670000", "115513.950000", "115515.230000", "115516.510000", "115517.790000", "115519.070000", "115520.350000", "115521.630000", "115522.910000", "115524.190000", "115525.470000", "115526.750000", "115528.030000", "115529.310000", "115530.590000", "115531.870000", "115533.150000", "115534.430000", "115535.710000", "115536.990000", "115538.270000", "115539.550000", "115540.830000", "115542.110000", "115543.390000", "115544.670000", "115545.950000", "115547.230000", "115548.510000", "115549.790000", "115551.070000", "115552.350000", "115553.630000", "115554.910000", "115556.190000", "115557.470000", "115558.750000", "115600.030000", "115601.310000", "115602.590000", "115603.870000", "115605.150000", "115606.430000", "115607.710000", "115608.990000", "115610.270000", "115611.550000", "115612.830000", "115614.110000", "115615.390000", "115616.670000", "115617.950000", "115619.230000", "115620.510000", "115621.790000", "115623.070000", "115624.350000", "115625.630000", "115626.910000", "115628.190000", "115629.470000", "115630.750000", "115632.030000", "115633.310000", "115634.590000", "115635.870000", "115637.150000", "115638.430000", "115639.710000", "115640.990000", "115642.270000", "115643.550000", "115644.830000", "115646.110000", "115647.390000", "115648.670000", "115649.950000", "115651.230000", "115652.510000", "115653.790000", "115655.070000", "115656.350000", "115657.630000", "115658.910000", "115700.190000", "115701.470000", "115702.750000", "115704.030000", "115705.310000", "115706.590000", "115707.870000", "115709.150000", "115710.430000", "115711.710000", "115712.990000"],
      "ContentTime": ["114956.890000", "114956.894000", "114956.897000", "114956.900000", "114956.903000", "114956.906000", "114956.909000", "114956.917000", "114956.920000", "114956.923000", "114956.925000", "114956.928000", "114956.943000", "114956.946000", "114956.950000", "114956.952000", "114956.955000", "114956.958000", "114956.961000", "114956.964000", "114956.967000", "114956.970000", "114956.973000", "114956.976000", "114956.978000", "114956.981000", "114956.984000", "114956.987000", "114956.990000", "114957.002000", "114957.005000", "115036.886000", "115036.889000", "115036.892000", "115036.895000", "115036.898000", "115036.901000", "115036.903000", "115036.906000", "115036.909000", "115036.912000", "115036.915000", "115036.918000", "115036.920000", "115036.923000", "115036.933000", "115036.936000", "115036.939000", "115036.942000", "115036.945000", "115036.948000", "115036.951000", "115036.954000", "115036.956000", "115036.959000", "115036.962000", "115036.965000", "115036.968000", "115036.971000", "115036.973000", "115036.976000", "115036.979000", "115116.887000", "115116.890000", "115116.893000", "115116.896000", "115116.899000", "115116.902000", "115116.904000", "115116.907000", "115116.910000", "115116.913000", "115116.916000", "115116.919000", "115116.922000", "115116.925000", "115116.927000", "115116.930000", "115116.933000", "115116.936000", "115116.939000", "115116.942000", "115116.944000", "115116.947000", "115116.950000", "115116.953000", "115116.956000", "115116.959000", "115116.962000", "115116.964000", "115116.967000", "115116.970000", "115116.973000", "115116.976000", "115156.887000", "115156.890000", "115156.893000", "115156.896000", "115156.899000", "115156.901000", "115156.904000", "115156.907000", "115156.910000", "115156.913000", "115156.916000", "115156.919000", "115156.921000", "115156.924000", "115156.927000", "115156.930000", "115156.933000", "115156.936000", "115156.939000", "115156.941000", "115156.944000", "115156.947000", "115156.950000", "115156.953000", "115156.956000", "115156.959000", "115156.961000", "115156.964000", "115156.967000", "115156.970000", "115156.973000", "115236.886000", "115236.889000", "115236.892000", "115236.895000", "115236.898000", "115236.901000", "115236.904000", "115236.906000", "115236.909000", "115236.912000", "115236.915000", "115236.918000", "115236.921000", "115236.924000", "115236.926000", "115236.929000", "115236.932000", "115236.935000", "115236.938000", "115236.941000", "115236.945000", "115236.948000", "115236.951000", "115236.954000", "115236.957000", "115236.959000", "115236.962000", "115236.965000", "115236.968000", "115236.971000", "115236.974000", "115316.887000", "115316.890000", "115316.893000", "115316.896000", "115316.899000", "115316.901000", "115316.904000", "115316.907000", "115316.910000", "115316.913000", "115316.916000", "115316.919000", "115316.922000", "115316.925000", "115316.928000", "115316.930000", "115316.933000", "115316.936000", "115316.939000", "115316.942000", "115316.945000", "115316.948000", "115316.951000", "115316.954000", "115316.956000", "115316.959000", "115316.962000", "115316.965000", "115316.968000", "115316.971000", "115316.974000", "115356.887000", "115356.890000", "115356.893000", "115356.896000", "115356.899000", "115356.902000", "115356.905000", "115356.907000", "115356.910000", "115356.913000", "115356.916000", "115356.919000", "115356.922000", "115356.925000", "115356.928000", "115356.931000", "115356.934000", "115356.949000", "115356.952000", "115356.955000", "115356.958000", "115356.961000", "115356.964000", "115356.967000", "115356.970000", "115356.973000", "115356.975000", "115356.978000", "115356.981000", "115356.984000", "115356.987000", "115356.990000", "115436.886000", "115436.894000", "115436.897000", "115436.900000", "115436.902000", "115436.905000", "115436.908000", "115436.911000", "115436.914000", "115436.917000", "115436.919000", "115436.923000", "115436.925000", "115436.928000", "115436.931000", "115436.934000", "115436.937000", "115436.940000", "115436.943000", "115436.946000", "115436.948000", "115436.951000", "115436.954000", "115436.957000", "115436.960000", "115436.963000", "115436.966000", "115436.969000", "115436.972000", "115436.974000", "115436.977000", "115516.886000", "115516.889000", "115516.892000", "115516.895000", "115516.898000", "115516.901000", "115516.904000", "115516.916000", "115516.919000", "115516.921000", "115516.924000", "115516.927000", "115516.930000", "115516.933000", "115516.936000", "115516.939000", "115516.943000", "115516.946000", "115516.949000", "115516.952000", "115516.955000", "115516.958000", "115516.961000", "115516.964000", "115516.967000", "115516.969000", "115516.972000", "115516.975000", "115516.978000", "115516.981000", "115516.984000", "115556.887000", "115556.890000", "115556.893000", "115556.896000", "115556.899000", "115556.902000", "115556.905000", "115556.908000", "115556.911000", "115556.913000", "115556.916000", "115556.919000", "115556.922000", "115556.925000", "115556.928000", "115556.931000", "115556.934000", "115556.937000", "115556.939000", "115556.942000", "115556.945000", "115556.948000", "115556.951000", "115556.954000", "115556.957000", "115556.960000", "115556.963000", "115556.966000", "115556.969000", "115556.971000", "115556.974000", "115636.887000", "115636.890000", "115636.894000", "115636.897000", "115636.900000", "115636.903000", "115636.906000", "115636.909000", "115636.911000", "115636.914000", "115636.917000", "115636.920000", "115636.923000", "115636.926000", "115636.929000", "115636.932000", "115636.934000", "115636.937000", "115636.940000", "115636.943000", "115636.946000", "115636.949000", "115636.952000", "115636.955000", "115636.958000", "115636.961000", "115636.963000", "115636.966000", "115636.969000", "115636.972000", "115636.975000", "115636.978000", "115713.931000", "115713.935000", "115713.939000", "115713.942000", "115713.945000", "115713.949000", "115713.953000", "115713.957000", "115713.960000", "115713.967000", "115713.970000", "115713.973000", "115713.978000", "115713.981000", "115713.984000", "115713.988000", "115713.991000", "115713.995000", "115713.998000", "115714.002000", "115714.004000", "115714.007000", "115714.010000", "115714.013000", "115714.016000", "115714.019000", "115714.022000", "115714.025000", "115714.028000"],
      "InstanceCreationTime": ["114956.890000", "114956.894000", "114956.897000", "114956.900000", "114956.903000", "114956.906000", "114956.909000", "114956.917000", "114956.920000", "114956.923000", "114956.925000", "114956.928000", "114956.943000", "114956.946000", "114956.950000", "114956.952000", "114956.955000", "114956.958000", "114956.961000", "114956.964000", "114956.967000", "114956.970000", "114956.973000", "114956.976000", "114956.978000", "114956.981000", "114956.984000", "114956.987000", "114956.990000", "114957.002000", "114957.005000", "115036.886000", "115036.889000", "115036.892000", "115036.895000", "115036.898000", "115036.901000", "115036.903000", "115036.906000", "115036.909000", "115036.912000", "115036.915000", "115036.918000", "115036.920000", "115036.923000", "115036.933000", "115036.936000", "115036.939000", "115036.942000", "115036.945000", "115036.948000", "115036.951000", "115036.954000", "115036.956000", "115036.959000", "115036.962000", "115036.965000", "115036.968000", "115036.971000", "115036.973000", "115036.976000", "115036.979000", "115116.887000", "115116.890000", "115116.893000", "115116.896000", "115116.899000", "115116.902000", "115116.904000", "115116.907000", "115116.910000", "115116.913000", "115116.916000", "115116.919000", "115116.922000", "115116.925000", "115116.927000", "115116.930000", "115116.933000", "115116.936000", "115116.939000", "115116.942000", "115116.944000", "115116.947000", "115116.950000", "115116.953000", "115116.956000", "115116.959000", "115116.962000", "115116.964000", "115116.967000", "115116.970000", "115116.973000", "115116.976000", "115156.887000", "115156.890000", "115156.893000", "115156.896000", "115156.899000", "115156.901000", "115156.904000", "115156.907000", "115156.910000", "115156.913000", "115156.916000", "115156.919000", "115156.921000", "115156.924000", "115156.927000", "115156.930000", "115156.933000", "115156.936000", "115156.939000", "115156.941000", "115156.944000", "115156.947000", "115156.950000", "115156.953000", "115156.956000", "115156.959000", "115156.961000", "115156.964000", "115156.967000", "115156.970000", "115156.973000", "115236.886000", "115236.889000", "115236.892000", "115236.895000", "115236.898000", "115236.901000", "115236.904000", "115236.906000", "115236.909000", "115236.912000", "115236.915000", "115236.918000", "115236.921000", "115236.924000", "115236.926000", "115236.929000", "115236.932000", "115236.935000", "115236.938000", "115236.941000", "115236.945000", "115236.948000", "115236.951000", "115236.954000", "115236.957000", "115236.959000", "115236.962000", "115236.965000", "115236.968000", "115236.971000", "115236.974000", "115316.887000", "115316.890000", "115316.893000", "115316.896000", "115316.899000", "115316.901000", "115316.904000", "115316.907000", "115316.910000", "115316.913000", "115316.916000", "115316.919000", "115316.922000", "115316.925000", "115316.928000", "115316.930000", "115316.933000", "115316.936000", "115316.939000", "115316.942000", "115316.945000", "115316.948000", "115316.951000", "115316.954000", "115316.956000", "115316.959000", "115316.962000", "115316.965000", "115316.968000", "115316.971000", "115316.974000", "115356.887000", "115356.890000", "115356.893000", "115356.896000", "115356.899000", "115356.902000", "115356.905000", "115356.907000", "115356.910000", "115356.913000", "115356.916000", "115356.919000", "115356.922000", "115356.925000", "115356.928000", "115356.931000", "115356.934000", "115356.949000", "115356.952000", "115356.955000", "115356.958000", "115356.961000", "115356.964000", "115356.967000", "115356.970000", "115356.973000", "115356.975000", "115356.978000", "115356.981000", "115356.984000", "115356.987000", "115356.990000", "115436.886000", "115436.894000", "115436.897000", "115436.900000", "115436.902000", "115436.905000", "115436.908000", "115436.911000", "115436.914000", "115436.917000", "115436.919000", "115436.923000", "115436.925000", "115436.928000", "115436.931000", "115436.934000", "115436.937000", "115436.940000", "115436.943000", "115436.946000", "115436.948000", "115436.951000", "115436.954000", "115436.957000", "115436.960000", "115436.963000", "115436.966000", "115436.969000", "115436.972000", "115436.974000", "115436.977000", "115516.886000", "115516.889000", "115516.892000", "115516.895000", "115516.898000", "115516.901000", "115516.904000", "115516.916000", "115516.919000", "115516.921000", "115516.924000", "115516.927000", "115516.930000", "115516.933000", "115516.936000", "115516.939000", "115516.943000", "115516.946000", "115516.949000", "115516.952000", "115516.955000", "115516.958000", "115516.961000", "115516.964000", "115516.967000", "115516.969000", "115516.972000", "115516.975000", "115516.978000", "115516.981000", "115516.984000", "115556.887000", "115556.890000", "115556.893000", "115556.896000", "115556.899000", "115556.902000", "115556.905000", "115556.908000", "115556.911000", "115556.913000", "115556.916000", "115556.919000", "115556.922000", "115556.925000", "115556.928000", "115556.931000", "115556.934000", "115556.937000", "115556.939000", "115556.942000", "115556.945000", "115556.948000", "115556.951000", "115556.954000", "115556.957000", "115556.960000", "115556.963000", "115556.966000", "115556.969000", "115556.971000", "115556.974000", "115636.887000", "115636.890000", "115636.894000", "115636.897000", "115636.900000", "115636.903000", "115636.906000", "115636.909000", "115636.911000", "115636.914000", "115636.917000", "115636.920000", "115636.923000", "115636.926000", "115636.929000", "115636.932000", "115636.934000", "115636.937000", "115636.940000", "115636.943000", "115636.946000", "115636.949000", "115636.952000", "115636.955000", "115636.958000", "115636.961000", "115636.963000", "115636.966000", "115636.969000", "115636.972000", "115636.975000", "115636.978000", "115713.931000", "115713.935000", "115713.939000", "115713.942000", "115713.945000", "115713.949000", "115713.953000", "115713.957000", "115713.960000", "115713.967000", "115713.970000", "115713.973000", "115713.978000", "115713.981000", "115713.984000", "115713.988000", "115713.991000", "115713.995000", "115713.998000", "115714.002000", "115714.004000", "115714.007000", "115714.010000", "115714.013000", "115714.016000", "115714.019000", "115714.022000", "115714.025000", "115714.028000"],
      "InstanceNumber": [1, 2, 3, 4, 5, 6, 7, 8, 9, 10, 11, 12, 13, 14, 15, 16, 17, 18, 19, 20, 21, 22, 23, 24, 25, 26, 27, 28, 29, 30, 31, 32, 33, 34, 35, 36, 37, 38, 39, 40, 41, 42, 43, 44, 45, 46, 47, 48, 49, 50, 51, 52, 53, 54, 55, 56, 57, 58, 59, 60, 61, 62, 63, 64, 65, 66, 67, 68, 69, 70, 71, 72, 73, 74, 75, 76, 77, 78, 79, 80, 81, 82, 83, 84, 85, 86, 87, 88, 89, 90, 91, 92, 93, 94, 95, 96, 97, 98, 99, 100, 101, 102, 103, 104, 105, 106, 107, 108, 109, 110, 111, 112, 113, 114, 115, 116, 117, 118, 119, 120, 121, 122, 123, 124, 125, 126, 127, 128, 129, 130, 131, 132, 133, 134, 135, 136, 137, 138, 139, 140, 141, 142, 143, 144, 145, 146, 147, 148, 149, 150, 151, 152, 153, 154, 155, 156, 157, 158, 159, 160, 161, 162, 163, 164, 165, 166, 167, 168, 169, 170, 171, 172, 173, 174, 175, 176, 177, 178, 179, 180, 181, 182, 183, 184, 185, 186, 187, 188, 189, 190, 191, 192, 193, 194, 195, 196, 197, 198, 199, 200, 201, 202, 203, 204, 205, 206, 207, 208, 209, 210, 211, 212, 213, 214, 215, 216, 217, 218, 219, 220, 221, 222, 223, 224, 225, 226, 227, 228, 229, 230, 231, 232, 233, 234, 235, 236, 237, 238, 239, 240, 241, 242, 243, 244, 245, 246, 247, 248, 249, 250, 251, 252, 253, 254, 255, 256, 257, 258, 259, 260, 261, 262, 263, 264, 265, 266, 267, 268, 269, 270, 271, 272, 273, 274, 275, 276, 277, 278, 279, 280, 281, 282, 283, 284, 285, 286, 287, 288, 289, 290, 291, 292, 293, 294, 295, 296, 297, 298, 299, 300, 301, 302, 303, 304, 305, 306, 307, 308, 309, 310, 311, 312, 313, 314, 315, 316, 317, 318, 319, 320, 321, 322, 323, 324, 325, 326, 327, 328, 329, 330, 331, 332, 333, 334, 335, 336, 337, 338, 339, 340, 341, 342, 343, 344, 345, 346, 347, 348, 349, 350, 351, 352, 353, 354, 355, 356, 357, 358, 359, 360, 361, 362, 363, 364, 365, 366, 367, 368, 369, 370, 371, 372, 373],
