{
  "AcquisitionMatrixPE": 108,
  "AcquisitionNumber": 1,
  "AcquisitionTime": "14:40:2.022500",
  "BandwidthPerPixelPhaseEncode": 15.964,
  "BaseResolution": 108,
  "BodyPartExamined": "BRAIN",
  "ConsistencyInfo": "N4_VE11C_LATEST_20160120",
  "ConversionSoftware": "dcm2niix",
  "ConversionSoftwareVersion": "v1.0.20180622 GCC6.3.0",
  "DerivedVendorReportedEchoSpacing": 0.000580009,
  "DeviceSerialNumber": "66054",
  "DwellTime": 2.1e-06,
  "EchoTime": 0.031,
  "EchoTrainLength": 95,
  "EffectiveEchoSpacing": 0.000580009,
  "FlipAngle": 64,
  "ImageOrientationPatientDICOM": [0.995637, 0.092866, -0.00905878, -0.0906101, 0.939123, -0.331418],
  "ImageType": [
    "ORIGINAL",
    "PRIMARY",
    "M",
    "ND",
    "MOSAIC"
],
  "InPlanePhaseEncodingDirectionDICOM": "COL",
  "InstitutionAddress": "Chemin_des_Mines_9_Geneve_District_CH_1211",
  "InstitutionName": "Fondation_Campus_Biotech_Geneva",
  "InstitutionalDepartmentName": "Department",
  "MRAcquisitionType": "2D",
  "MagneticFieldStrength": 3,
  "Manufacturer": "Siemens",
  "ManufacturersModelName": "Prisma",
  "Modality": "MR",
  "MultibandAccelerationFactor": 4,
  "PartialFourier": 0.875,
  "PatientPosition": "HFS",
  "PercentPhaseFOV": 100,
  "PhaseEncodingDirection": "j-",
  "PhaseEncodingSteps": 95,
  "PhaseResolution": 1,
  "PixelBandwidth": 2205,
  "ProcedureStepDescription": "J.DRM_Michael",
  "ProtocolName": "Run6_bold_s4_TR1.28",
  "PulseSequenceDetails": "%SiemensSeq%_ep2d_bold",
  "ReceiveCoilActiveElements": "HC1-7;NC1,2",
  "ReceiveCoilName": "HeadNeck_64",
  "ReconMatrixPE": 108,
  "RepetitionTime": 1.28,
  "SAR": 0.0772296,
  "ScanOptions": "PFP_FS",
  "ScanningSequence": "EP",
  "SequenceName": "_epfid2d1_108",
  "SequenceVariant": "SK",
  "SeriesDescription": "Run6_bold_s4_TR1.28",
  "SeriesNumber": 14,
  "ShimSetting": [-1264, -11677, 6487, 683, 98, -92, 62, 45],
  "SliceThickness": 2,
  "SliceTiming": [0.9425, 0, 0.6275, 0.0775, 0.7075, 0.1575, 0.785, 0.235, 0.865, 0.3925, 1.0225, 0.4725, 1.1, 0.55, 1.18, 0.315, 0.9425, 0, 0.6275, 0.0775, 0.7075, 0.1575, 0.785, 0.235, 0.865, 0.3925, 1.0225, 0.4725, 1.1, 0.55, 1.18, 0.315, 0.9425, 0, 0.6275, 0.0775, 0.7075, 0.1575, 0.785, 0.235, 0.865, 0.3925, 1.0225, 0.4725, 1.1, 0.55, 1.18, 0.315, 0.9425, 0, 0.6275, 0.0775, 0.7075, 0.1575, 0.785, 0.235, 0.865, 0.3925, 1.0225, 0.4725, 1.1, 0.55, 1.18, 0.315],
  "SoftwareVersions": "syngo_MR_E11",
  "SpacingBetweenSlices": 2,
  "StationName": "AWP66054",
  "TaskName": "main",
  "TotalReadoutTime": 0.0620609,
  "TxRefAmp": 302.621,
  "dcmmeta_affine": [
    [-1.9820560216903687, -0.18038123846054077, 0.04454023391008377, 111.79391479492188],
    [-0.1848720759153366, 1.8695505857467651, -0.66158527135849, -53.654300689697266],
    [-0.018033673986792564, 0.659766674041748, 1.8868812322616577, -84.34577941894531],
    [0.0, 0.0, 0.0, 1.0]
],
  "dcmmeta_reorient_transform": [
    [0.0, -1.0, 0.0, 107.0],
    [1.0, 0.0, 0.0, 0.0],
    [0.0, 0.0, 1.0, 0.0],
    [0.0, 0.0, 0.0, 1.0]
],
  "dcmmeta_shape": [108, 108, 64, 371],
  "dcmmeta_slice_dim": 2,
  "dcmmeta_version": 0.6,
  "global": {
    "const": {
      "AccessionNumber": "",
      "AcquisitionMatrix": [108, 0, 0, 108],
      "AngioFlag": "N",
      "BitsAllocated": 16,
      "BitsStored": 12,
      "BodyPartExamined": "BRAIN",
      "Columns": 864,
      "EchoNumbers": 1,
      "EchoTime": 31.0,
      "EchoTrainLength": 95,
      "FlipAngle": 64.0,
      "HighBit": 11,
      "ImageOrientationPatient": [0.99563740917737, 0.09286596810967, -0.0090587755036, -0.0906101059237, 0.93912306732364, -0.3314176717152],
      "ImagePositionPatient": [-773.52618091762, -922.95937390876, 242.45778294553],
      "ImageType": [
        "ORIGINAL",
        "PRIMARY",
        "M",
        "ND",
        "MOSAIC"
],
      "ImagedNucleus": "1H",
      "ImagingFrequency": 123.25741,
      "InPlanePhaseEncodingDirection": "COL",
      "MRAcquisitionType": "2D",
      "MagneticFieldStrength": 3.0,
      "Manufacturer": "SIEMENS",
      "ManufacturerModelName": "Prisma",
      "Modality": "MR",
      "NumberOfAverages": 1.0,
      "NumberOfPhaseEncodingSteps": 95,
      "PercentPhaseFieldOfView": 100.0,
      "PercentSampling": 100.0,
      "PerformedProcedureStepStartTime": "133400.902000",
      "PhotometricInterpretation": "MONOCHROME2",
      "PixelBandwidth": 2205.0,
      "PixelRepresentation": 0,
      "PixelSpacing": [1.990740776062, 1.990740776062],
      "PositionReferenceIndicator": "",
      "ProtocolName": "Run6_bold_s4_TR1.28",
      "RepetitionTime": 1280.0,
      "Rows": 864,
      "SAR": 0.07722964399327,
      "SamplesPerPixel": 1,
      "ScanOptions": [
        "PFP",
        "FS"
],
      "ScanningSequence": "EP",
      "SequenceName": "*epfid2d1_108",
      "SequenceVariant": "SK",
      "SeriesDescription": "Run6_bold_s4_TR1.28",
      "SeriesNumber": 14,
      "SeriesTime": "144044.869000",
      "SliceLocation": -59.337127596907,
      "SliceThickness": 2.0,
      "SmallestImagePixelValue": 0,
      "SoftwareVersions": "syngo MR E11",
      "SpacingBetweenSlices": 1.9999999533462,
      "SpecificCharacterSet": "ISO_IR 100",
      "StudyID": "1",
      "StudyTime": "133400.831000",
      "TransmitCoilName": "Body",
      "VariableFlipAngleFlag": "N",
      "WindowCenterWidthExplanation": "Algo1",
      "dBdt": 0.0},
    "slices": {}
  },
  "time": {
    "samples": {
      "AcquisitionNumber": [1, 2, 3, 4, 5, 6, 7, 8, 9, 10, 11, 12, 13, 14, 15, 16, 17, 18, 19, 20, 21, 22, 23, 24, 25, 26, 27, 28, 29, 30, 31, 32, 33, 34, 35, 36, 37, 38, 39, 40, 41, 42, 43, 44, 45, 46, 47, 48, 49, 50, 51, 52, 53, 54, 55, 56, 57, 58, 59, 60, 61, 62, 63, 64, 65, 66, 67, 68, 69, 70, 71, 72, 73, 74, 75, 76, 77, 78, 79, 80, 81, 82, 83, 84, 85, 86, 87, 88, 89, 90, 91, 92, 93, 94, 95, 96, 97, 98, 99, 100, 101, 102, 103, 104, 105, 106, 107, 108, 109, 110, 111, 112, 113, 114, 115, 116, 117, 118, 119, 120, 121, 122, 123, 124, 125, 126, 127, 128, 129, 130, 131, 132, 133, 134, 135, 136, 137, 138, 139, 140, 141, 142, 143, 144, 145, 146, 147, 148, 149, 150, 151, 152, 153, 154, 155, 156, 157, 158, 159, 160, 161, 162, 163, 164, 165, 166, 167, 168, 169, 170, 171, 172, 173, 174, 175, 176, 177, 178, 179, 180, 181, 182, 183, 184, 185, 186, 187, 188, 189, 190, 191, 192, 193, 194, 195, 196, 197, 198, 199, 200, 201, 202, 203, 204, 205, 206, 207, 208, 209, 210, 211, 212, 213, 214, 215, 216, 217, 218, 219, 220, 221, 222, 223, 224, 225, 226, 227, 228, 229, 230, 231, 232, 233, 234, 235, 236, 237, 238, 239, 240, 241, 242, 243, 244, 245, 246, 247, 248, 249, 250, 251, 252, 253, 254, 255, 256, 257, 258, 259, 260, 261, 262, 263, 264, 265, 266, 267, 268, 269, 270, 271, 272, 273, 274, 275, 276, 277, 278, 279, 280, 281, 282, 283, 284, 285, 286, 287, 288, 289, 290, 291, 292, 293, 294, 295, 296, 297, 298, 299, 300, 301, 302, 303, 304, 305, 306, 307, 308, 309, 310, 311, 312, 313, 314, 315, 316, 317, 318, 319, 320, 321, 322, 323, 324, 325, 326, 327, 328, 329, 330, 331, 332, 333, 334, 335, 336, 337, 338, 339, 340, 341, 342, 343, 344, 345, 346, 347, 348, 349, 350, 351, 352, 353, 354, 355, 356, 357, 358, 359, 360, 361, 362, 363, 364, 365, 366, 367, 368, 369, 370, 371],
      "AcquisitionTime": ["144002.022500", "144003.302500", "144004.582500", "144005.862500", "144007.142500", "144008.422500", "144009.702500", "144010.982500", "144012.262500", "144013.542500", "144014.822500", "144016.102500", "144017.382500", "144018.662500", "144019.942500", "144021.222500", "144022.502500", "144023.782500", "144025.062500", "144026.342500", "144027.622500", "144028.902500", "144030.182500", "144031.462500", "144032.742500", "144034.022500", "144035.302500", "144036.582500", "144037.862500", "144039.142500", "144040.422500", "144041.702500", "144042.982500", "144044.262500", "144045.542500", "144046.822500", "144048.102500", "144049.382500", "144050.662500", "144051.942500", "144053.222500", "144054.502500", "144055.782500", "144057.062500", "144058.342500", "144059.622500", "144100.902500", "144102.182500", "144103.462500", "144104.742500", "144106.022500", "144107.302500", "144108.582500", "144109.862500", "144111.142500", "144112.422500", "144113.702500", "144114.982500", "144116.262500", "144117.542500", "144118.822500", "144120.102500", "144121.382500", "144122.662500", "144123.942500", "144125.222500", "144126.502500", "144127.782500", "144129.062500", "144130.342500", "144131.622500", "144132.902500", "144134.182500", "144135.462500", "144136.742500", "144138.022500", "144139.302500", "144140.582500", "144141.862500", "144143.142500", "144144.422500", "144145.702500", "144146.982500", "144148.262500", "144149.542500", "144150.822500", "144152.102500", "144153.382500", "144154.662500", "144155.942500", "144157.222500", "144158.502500", "144159.782500", "144201.062500", "144202.342500", "144203.622500", "144204.902500", "144206.182500", "144207.462500", "144208.742500", "144210.022500", "144211.302500", "144212.582500", "144213.862500", "144215.142500", "144216.422500", "144217.702500", "144218.982500", "144220.262500", "144221.542500", "144222.822500", "144224.102500", "144225.382500", "144226.662500", "144227.942500", "144229.222500", "144230.502500", "144231.782500", "144233.062500", "144234.342500", "144235.622500", "144236.902500", "144238.182500", "144239.462500", "144240.742500", "144242.022500", "144243.302500", "144244.582500", "144245.862500", "144247.142500", "144248.422500", "144249.702500", "144250.982500", "144252.262500", "144253.542500", "144254.822500", "144256.102500", "144257.382500", "144258.662500", "144259.942500", "144301.222500", "144302.502500", "144303.782500", "144305.062500", "144306.342500", "144307.622500", "144308.902500", "144310.182500", "144311.462500", "144312.742500", "144314.022500", "144315.302500", "144316.582500", "144317.862500", "144319.142500", "144320.422500", "144321.702500", "144322.982500", "144324.262500", "144325.542500", "144326.822500", "144328.102500", "144329.382500", "144330.662500", "144331.942500", "144333.222500", "144334.502500", "144335.782500", "144337.062500", "144338.342500", "144339.622500", "144340.902500", "144342.182500", "144343.462500", "144344.742500", "144346.022500", "144347.302500", "144348.582500", "144349.862500", "144351.142500", "144352.422500", "144353.702500", "144354.982500", "144356.262500", "144357.542500", "144358.822500", "144400.102500", "144401.382500", "144402.662500", "144403.942500", "144405.222500", "144406.502500", "144407.782500", "144409.062500", "144410.342500", "144411.622500", "144412.902500", "144414.182500", "144415.462500", "144416.742500", "144418.022500", "144419.302500", "144420.582500", "144421.862500", "144423.142500", "144424.422500", "144425.702500", "144426.982500", "144428.262500", "144429.542500", "144430.822500", "144432.102500", "144433.382500", "144434.662500", "144435.942500", "144437.222500", "144438.502500", "144439.782500", "144441.062500", "144442.342500", "144443.622500", "144444.902500", "144446.182500", "144447.462500", "144448.742500", "144450.022500", "144451.302500", "144452.582500", "144453.862500", "144455.142500", "144456.422500", "144457.702500", "144458.982500", "144500.262500", "144501.542500", "144502.822500", "144504.102500", "144505.382500", "144506.662500", "144507.942500", "144509.222500", "144510.502500", "144511.782500", "144513.062500", "144514.342500", "144515.622500", "144516.902500", "144518.182500", "144519.462500", "144520.742500", "144522.022500", "144523.302500", "144524.582500", "144525.862500", "144527.142500", "144528.422500", "144529.702500", "144530.982500", "144532.262500", "144533.542500", "144534.822500", "144536.102500", "144537.382500", "144538.662500", "144539.942500", "144541.222500", "144542.502500", "144543.782500", "144545.062500", "144546.342500", "144547.622500", "144548.902500", "144550.182500", "144551.462500", "144552.742500", "144554.022500", "144555.302500", "144556.582500", "144557.862500", "144559.142500", "144600.422500", "144601.702500", "144602.982500", "144604.262500", "144605.542500", "144606.822500", "144608.102500", "144609.382500", "144610.662500", "144611.942500", "144613.222500", "144614.502500", "144615.782500", "144617.062500", "144618.342500", "144619.622500", "144620.902500", "144622.182500", "144623.462500", "144624.742500", "144626.022500", "144627.302500", "144628.582500", "144629.862500", "144631.142500", "144632.422500", "144633.702500", "144634.982500", "144636.262500", "144637.542500", "144638.822500", "144640.102500", "144641.382500", "144642.662500", "144643.942500", "144645.222500", "144646.502500", "144647.782500", "144649.062500", "144650.342500", "144651.622500", "144652.902500", "144654.182500", "144655.462500", "144656.742500", "144658.022500", "144659.302500", "144700.582500", "144701.862500", "144703.142500", "144704.422500", "144705.702500", "144706.982500", "144708.262500", "144709.542500", "144710.822500", "144712.102500", "144713.382500", "144714.662500", "144715.942500", "144717.222500", "144718.502500", "144719.782500", "144721.062500", "144722.342500", "144723.622500", "144724.902500", "144726.182500", "144727.462500", "144728.742500", "144730.022500", "144731.302500", "144732.582500", "144733.862500", "144735.142500", "144736.422500", "144737.702500", "144738.982500", "144740.262500", "144741.542500", "144742.822500", "144744.102500", "144745.382500", "144746.662500", "144747.942500", "144749.222500", "144750.502500", "144751.782500", "144753.062500", "144754.342500", "144755.622500"],
      "ContentTime": ["144044.873000", "144044.877000", "144044.881000", "144044.884000", "144044.887000", "144044.890000", "144044.893000", "144044.896000", "144044.899000", "144044.902000", "144044.905000", "144044.907000", "144044.910000", "144044.913000", "144044.916000", "144044.919000", "144044.922000", "144044.925000", "144044.928000", "144044.931000", "144044.934000", "144044.937000", "144044.955000", "144044.958000", "144044.961000", "144044.964000", "144044.967000", "144044.970000", "144044.973000", "144044.976000", "144044.979000", "144044.982000", "144044.985000", "144124.868000", "144124.871000", "144124.874000", "144124.877000", "144124.880000", "144124.883000", "144124.886000", "144124.889000", "144124.892000", "144124.895000", "144124.897000", "144124.900000", "144124.903000", "144124.906000", "144124.909000", "144124.912000", "144124.915000", "144124.918000", "144124.921000", "144124.924000", "144124.927000", "144124.929000", "144124.932000", "144124.935000", "144124.938000", "144124.941000", "144124.944000", "144124.947000", "144124.950000", "144124.953000", "144124.956000", "144204.867000", "144204.871000", "144204.874000", "144204.877000", "144204.880000", "144204.883000", "144204.886000", "144204.889000", "144204.892000", "144204.895000", "144204.898000", "144204.901000", "144204.903000", "144204.908000", "144204.914000", "144204.918000", "144204.921000", "144204.924000", "144204.938000", "144204.941000", "144204.944000", "144204.947000", "144204.950000", "144204.953000", "144204.956000", "144204.959000", "144204.962000", "144204.964000", "144204.967000", "144204.970000", "144204.973000", "144244.867000", "144244.870000", "144244.873000", "144244.876000", "144244.879000", "144244.882000", "144244.885000", "144244.888000", "144244.891000", "144244.893000", "144244.896000", "144244.899000", "144244.902000", "144244.905000", "144244.908000", "144244.916000", "144244.919000", "144244.921000", "144244.924000", "144244.927000", "144244.930000", "144244.933000", "144244.936000", "144244.939000", "144244.942000", "144244.945000", "144244.948000", "144244.951000", "144244.953000", "144244.956000", "144244.959000", "144244.962000", "144324.868000", "144324.871000", "144324.874000", "144324.877000", "144324.880000", "144324.883000", "144324.886000", "144324.889000", "144324.892000", "144324.894000", "144324.897000", "144324.900000", "144324.903000", "144324.906000", "144324.909000", "144324.912000", "144324.915000", "144324.918000", "144324.921000", "144324.924000", "144324.926000", "144324.929000", "144324.947000", "144324.950000", "144324.953000", "144324.956000", "144324.959000", "144324.962000", "144324.965000", "144324.968000", "144324.970000", "144404.868000", "144404.871000", "144404.874000", "144404.877000", "144404.880000", "144404.883000", "144404.886000", "144404.889000", "144404.892000", "144404.895000", "144404.898000", "144404.900000", "144404.903000", "144404.906000", "144404.909000", "144404.912000", "144404.915000", "144404.918000", "144404.921000", "144404.924000", "144404.926000", "144404.929000", "144404.932000", "144404.935000", "144404.938000", "144404.941000", "144404.944000", "144404.947000", "144404.950000", "144404.953000", "144404.956000", "144444.867000", "144444.870000", "144444.873000", "144444.876000", "144444.879000", "144444.882000", "144444.885000", "144444.888000", "144444.891000", "144444.894000", "144444.897000", "144444.900000", "144444.903000", "144444.906000", "144444.909000", "144444.912000", "144444.915000", "144444.917000", "144444.920000", "144444.923000", "144444.926000", "144444.929000", "144444.932000", "144444.935000", "144444.938000", "144444.941000", "144444.944000", "144444.947000", "144444.950000", "144444.953000", "144444.956000", "144524.868000", "144524.871000", "144524.874000", "144524.877000", "144524.880000", "144524.883000", "144524.886000", "144524.889000", "144524.892000", "144524.895000", "144524.897000", "144524.900000", "144524.903000", "144524.906000", "144524.909000", "144524.912000", "144524.915000", "144524.918000", "144524.921000", "144524.924000", "144524.927000", "144524.930000", "144524.933000", "144524.935000", "144524.938000", "144524.941000", "144524.944000", "144524.947000", "144524.950000", "144524.953000", "144524.956000", "144524.959000", "144604.868000", "144604.871000", "144604.874000", "144604.877000", "144604.880000", "144604.883000", "144604.886000", "144604.889000", "144604.892000", "144604.895000", "144604.898000", "144604.901000", "144604.904000", "144604.906000", "144604.909000", "144604.912000", "144604.915000", "144604.918000", "144604.921000", "144604.924000", "144604.927000", "144604.930000", "144604.933000", "144604.936000", "144604.939000", "144604.941000", "144604.944000", "144604.947000", "144604.950000", "144604.953000", "144604.956000", "144644.867000", "144644.870000", "144644.873000", "144644.876000", "144644.879000", "144644.882000", "144644.885000", "144644.888000", "144644.891000", "144644.894000", "144644.896000", "144644.899000", "144644.902000", "144644.905000", "144644.908000", "144644.911000", "144644.914000", "144644.917000", "144644.920000", "144644.923000", "144644.926000", "144644.929000", "144644.932000", "144644.934000", "144644.937000", "144644.940000", "144644.943000", "144644.946000", "144644.952000", "144644.955000", "144644.958000", "144724.867000", "144724.870000", "144724.873000", "144724.876000", "144724.879000", "144724.882000", "144724.885000", "144724.888000", "144724.891000", "144724.893000", "144724.896000", "144724.899000", "144724.902000", "144724.905000", "144724.908000", "144724.911000", "144724.914000", "144724.917000", "144724.920000", "144724.923000", "144724.926000", "144724.928000", "144724.941000", "144724.944000", "144724.947000", "144724.950000", "144724.953000", "144724.956000", "144724.959000", "144724.962000", "144724.964000", "144756.941000", "144756.944000", "144756.947000", "144756.950000", "144756.953000", "144756.956000", "144756.959000", "144756.962000", "144756.965000", "144756.968000", "144756.971000", "144756.974000", "144756.977000", "144756.980000", "144756.983000", "144756.986000", "144756.989000", "144756.992000", "144756.994000", "144756.997000", "144757.001000", "144757.004000", "144757.007000", "144757.010000", "144757.013000", "144757.016000"],
      "InstanceCreationTime": ["144044.873000", "144044.877000", "144044.881000", "144044.884000", "144044.887000", "144044.890000", "144044.893000", "144044.896000", "144044.899000", "144044.902000", "144044.905000", "144044.907000", "144044.910000", "144044.913000", "144044.916000", "144044.919000", "144044.922000", "144044.925000", "144044.928000", "144044.931000", "144044.934000", "144044.937000", "144044.955000", "144044.958000", "144044.961000", "144044.964000", "144044.967000", "144044.970000", "144044.973000", "144044.976000", "144044.979000", "144044.982000", "144044.985000", "144124.868000", "144124.871000", "144124.874000", "144124.877000", "144124.880000", "144124.883000", "144124.886000", "144124.889000", "144124.892000", "144124.895000", "144124.897000", "144124.900000", "144124.903000", "144124.906000", "144124.909000", "144124.912000", "144124.915000", "144124.918000", "144124.921000", "144124.924000", "144124.927000", "144124.929000", "144124.932000", "144124.935000", "144124.938000", "144124.941000", "144124.944000", "144124.947000", "144124.950000", "144124.953000", "144124.956000", "144204.867000", "144204.871000", "144204.874000", "144204.877000", "144204.880000", "144204.883000", "144204.886000", "144204.889000", "144204.892000", "144204.895000", "144204.898000", "144204.901000", "144204.903000", "144204.908000", "144204.914000", "144204.918000", "144204.921000", "144204.924000", "144204.938000", "144204.941000", "144204.944000", "144204.947000", "144204.950000", "144204.953000", "144204.956000", "144204.959000", "144204.962000", "144204.964000", "144204.967000", "144204.970000", "144204.973000", "144244.867000", "144244.870000", "144244.873000", "144244.876000", "144244.879000", "144244.882000", "144244.885000", "144244.888000", "144244.891000", "144244.893000", "144244.896000", "144244.899000", "144244.902000", "144244.905000", "144244.908000", "144244.916000", "144244.919000", "144244.921000", "144244.924000", "144244.927000", "144244.930000", "144244.933000", "144244.936000", "144244.939000", "144244.942000", "144244.945000", "144244.948000", "144244.951000", "144244.953000", "144244.956000", "144244.959000", "144244.962000", "144324.868000", "144324.871000", "144324.874000", "144324.877000", "144324.880000", "144324.883000", "144324.886000", "144324.889000", "144324.892000", "144324.894000", "144324.897000", "144324.900000", "144324.903000", "144324.906000", "144324.909000", "144324.912000", "144324.915000", "144324.918000", "144324.921000", "144324.924000", "144324.926000", "144324.929000", "144324.947000", "144324.950000", "144324.953000", "144324.956000", "144324.959000", "144324.962000", "144324.965000", "144324.968000", "144324.970000", "144404.868000", "144404.871000", "144404.874000", "144404.877000", "144404.880000", "144404.883000", "144404.886000", "144404.889000", "144404.892000", "144404.895000", "144404.898000", "144404.900000", "144404.903000", "144404.906000", "144404.909000", "144404.912000", "144404.915000", "144404.918000", "144404.921000", "144404.924000", "144404.926000", "144404.929000", "144404.932000", "144404.935000", "144404.938000", "144404.941000", "144404.944000", "144404.947000", "144404.950000", "144404.953000", "144404.956000", "144444.867000", "144444.870000", "144444.873000", "144444.876000", "144444.879000", "144444.882000", "144444.885000", "144444.888000", "144444.891000", "144444.894000", "144444.897000", "144444.900000", "144444.903000", "144444.906000", "144444.909000", "144444.912000", "144444.915000", "144444.917000", "144444.920000", "144444.923000", "144444.926000", "144444.929000", "144444.932000", "144444.935000", "144444.938000", "144444.941000", "144444.944000", "144444.947000", "144444.950000", "144444.953000", "144444.956000", "144524.868000", "144524.871000", "144524.874000", "144524.877000", "144524.880000", "144524.883000", "144524.886000", "144524.889000", "144524.892000", "144524.895000", "144524.897000", "144524.900000", "144524.903000", "144524.906000", "144524.909000", "144524.912000", "144524.915000", "144524.918000", "144524.921000", "144524.924000", "144524.927000", "144524.930000", "144524.933000", "144524.935000", "144524.938000", "144524.941000", "144524.944000", "144524.947000", "144524.950000", "144524.953000", "144524.956000", "144524.959000", "144604.868000", "144604.871000", "144604.874000", "144604.877000", "144604.880000", "144604.883000", "144604.886000", "144604.889000", "144604.892000", "144604.895000", "144604.898000", "144604.901000", "144604.904000", "144604.906000", "144604.909000", "144604.912000", "144604.915000", "144604.918000", "144604.921000", "144604.924000", "144604.927000", "144604.930000", "144604.933000", "144604.936000", "144604.939000", "144604.941000", "144604.944000", "144604.947000", "144604.950000", "144604.953000", "144604.956000", "144644.867000", "144644.870000", "144644.873000", "144644.876000", "144644.879000", "144644.882000", "144644.885000", "144644.888000", "144644.891000", "144644.894000", "144644.896000", "144644.899000", "144644.902000", "144644.905000", "144644.908000", "144644.911000", "144644.914000", "144644.917000", "144644.920000", "144644.923000", "144644.926000", "144644.929000", "144644.932000", "144644.934000", "144644.937000", "144644.940000", "144644.943000", "144644.946000", "144644.952000", "144644.955000", "144644.958000", "144724.867000", "144724.870000", "144724.873000", "144724.876000", "144724.879000", "144724.882000", "144724.885000", "144724.888000", "144724.891000", "144724.893000", "144724.896000", "144724.899000", "144724.902000", "144724.905000", "144724.908000", "144724.911000", "144724.914000", "144724.917000", "144724.920000", "144724.923000", "144724.926000", "144724.928000", "144724.941000", "144724.944000", "144724.947000", "144724.950000", "144724.953000", "144724.956000", "144724.959000", "144724.962000", "144724.964000", "144756.941000", "144756.944000", "144756.947000", "144756.950000", "144756.953000", "144756.956000", "144756.959000", "144756.962000", "144756.965000", "144756.968000", "144756.971000", "144756.974000", "144756.977000", "144756.980000", "144756.983000", "144756.986000", "144756.989000", "144756.992000", "144756.994000", "144756.997000", "144757.001000", "144757.004000", "144757.007000", "144757.010000", "144757.013000", "144757.016000"],
      "InstanceNumber": [1, 2, 3, 4, 5, 6, 7, 8, 9, 10, 11, 12, 13, 14, 15, 16, 17, 18, 19, 20, 21, 22, 23, 24, 25, 26, 27, 28, 29, 30, 31, 32, 33, 34, 35, 36, 37, 38, 39, 40, 41, 42, 43, 44, 45, 46, 47, 48, 49, 50, 51, 52, 53, 54, 55, 56, 57, 58, 59, 60, 61, 62, 63, 64, 65, 66, 67, 68, 69, 70, 71, 72, 73, 74, 75, 76, 77, 78, 79, 80, 81, 82, 83, 84, 85, 86, 87, 88, 89, 90, 91, 92, 93, 94, 95, 96, 97, 98, 99, 100, 101, 102, 103, 104, 105, 106, 107, 108, 109, 110, 111, 112, 113, 114, 115, 116, 117, 118, 119, 120, 121, 122, 123, 124, 125, 126, 127, 128, 129, 130, 131, 132, 133, 134, 135, 136, 137, 138, 139, 140, 141, 142, 143, 144, 145, 146, 147, 148, 149, 150, 151, 152, 153, 154, 155, 156, 157, 158, 159, 160, 161, 162, 163, 164, 165, 166, 167, 168, 169, 170, 171, 172, 173, 174, 175, 176, 177, 178, 179, 180, 181, 182, 183, 184, 185, 186, 187, 188, 189, 190, 191, 192, 193, 194, 195, 196, 197, 198, 199, 200, 201, 202, 203, 204, 205, 206, 207, 208, 209, 210, 211, 212, 213, 214, 215, 216, 217, 218, 219, 220, 221, 222, 223, 224, 225, 226, 227, 228, 229, 230, 231, 232, 233, 234, 235, 236, 237, 238, 239, 240, 241, 242, 243, 244, 245, 246, 247, 248, 249, 250, 251, 252, 253, 254, 255, 256, 257, 258, 259, 260, 261, 262, 263, 264, 265, 266, 267, 268, 269, 270, 271, 272, 273, 274, 275, 276, 277, 278, 279, 280, 281, 282, 283, 284, 285, 286, 287, 288, 289, 290, 291, 292, 293, 294, 295, 296, 297, 298, 299, 300, 301, 302, 303, 304, 305, 306, 307, 308, 309, 310, 311, 312, 313, 314, 315, 316, 317, 318, 319, 320, 321, 322, 323, 324, 325, 326, 327, 328, 329, 330, 331, 332, 333, 334, 335, 336, 337, 338, 339, 340, 341, 342, 343, 344, 345, 346, 347, 348, 349, 350, 351, 352, 353, 354, 355, 356, 357, 358, 359, 360, 361, 362, 363, 364, 365, 366, 367, 368, 369, 370, 371],
