{
  "AcquisitionMatrixPE": 108,
  "AcquisitionNumber": 1,
  "AcquisitionTime": "14:12:2.300000",
  "BandwidthPerPixelPhaseEncode": 15.964,
  "BaseResolution": 108,
  "BodyPartExamined": "BRAIN",
  "ConsistencyInfo": "N4_VE11C_LATEST_20160120",
  "ConversionSoftware": "dcm2niix",
  "ConversionSoftwareVersion": "v1.0.20180622 GCC6.3.0",
  "DerivedVendorReportedEchoSpacing": 0.000580009,
  "DeviceSerialNumber": "66054",
  "DwellTime": 2.1e-06,
  "EchoTime": 0.031,
  "EchoTrainLength": 95,
  "EffectiveEchoSpacing": 0.000580009,
  "FlipAngle": 64,
  "ImageOrientationPatientDICOM": [0.995637, 0.092866, -0.00905878, -0.0906101, 0.939123, -0.331418],
  "ImageType": [
    "ORIGINAL",
    "PRIMARY",
    "M",
    "ND",
    "MOSAIC"
],
  "InPlanePhaseEncodingDirectionDICOM": "COL",
  "InstitutionAddress": "Chemin_des_Mines_9_Geneve_District_CH_1211",
  "InstitutionName": "Fondation_Campus_Biotech_Geneva",
  "InstitutionalDepartmentName": "Department",
  "MRAcquisitionType": "2D",
  "MagneticFieldStrength": 3,
  "Manufacturer": "Siemens",
  "ManufacturersModelName": "Prisma",
  "Modality": "MR",
  "MultibandAccelerationFactor": 4,
  "PartialFourier": 0.875,
  "PatientPosition": "HFS",
  "PercentPhaseFOV": 100,
  "PhaseEncodingDirection": "j-",
  "PhaseEncodingSteps": 95,
  "PhaseResolution": 1,
  "PixelBandwidth": 2205,
  "ProcedureStepDescription": "J.DRM_Michael",
  "ProtocolName": "Run4_bold_s4_TR1.28",
  "PulseSequenceDetails": "%SiemensSeq%_ep2d_bold",
  "ReceiveCoilActiveElements": "HC1-7;NC1,2",
  "ReceiveCoilName": "HeadNeck_64",
  "ReconMatrixPE": 108,
  "RepetitionTime": 1.28,
  "SAR": 0.0772296,
  "ScanOptions": "PFP_FS",
  "ScanningSequence": "EP",
  "SequenceName": "_epfid2d1_108",
  "SequenceVariant": "SK",
  "SeriesDescription": "Run4_bold_s4_TR1.28",
  "SeriesNumber": 9,
  "ShimSetting": [-1264, -11677, 6487, 683, 98, -92, 62, 45],
  "SliceThickness": 2,
  "SliceTiming": [0.945, 0, 0.63, 0.0775, 0.7075, 0.1575, 0.7875, 0.235, 0.865, 0.3925, 1.0225, 0.4725, 1.1025, 0.55, 1.18, 0.315, 0.945, 0, 0.63, 0.0775, 0.7075, 0.1575, 0.7875, 0.235, 0.865, 0.3925, 1.0225, 0.4725, 1.1025, 0.55, 1.18, 0.315, 0.945, 0, 0.63, 0.0775, 0.7075, 0.1575, 0.7875, 0.235, 0.865, 0.3925, 1.0225, 0.4725, 1.1025, 0.55, 1.18, 0.315, 0.945, 0, 0.63, 0.0775, 0.7075, 0.1575, 0.7875, 0.235, 0.865, 0.3925, 1.0225, 0.4725, 1.1025, 0.55, 1.18, 0.315],
  "SoftwareVersions": "syngo_MR_E11",
  "SpacingBetweenSlices": 2,
  "StationName": "AWP66054",
  "TaskName": "main",
  "TotalReadoutTime": 0.0620609,
  "TxRefAmp": 302.621,
  "dcmmeta_affine": [
    [-1.9820560216903687, -0.18038123846054077, 0.04454023391008377, 111.79391479492188],
    [-0.1848720759153366, 1.8695505857467651, -0.66158527135849, -53.654300689697266],
    [-0.018033673986792564, 0.659766674041748, 1.8868812322616577, -84.34577941894531],
    [0.0, 0.0, 0.0, 1.0]
],
  "dcmmeta_reorient_transform": [
    [0.0, -1.0, 0.0, 107.0],
    [1.0, 0.0, 0.0, 0.0],
    [0.0, 0.0, 1.0, 0.0],
    [0.0, 0.0, 0.0, 1.0]
],
  "dcmmeta_shape": [108, 108, 64, 371],
  "dcmmeta_slice_dim": 2,
  "dcmmeta_version": 0.6,
  "global": {
    "const": {
      "AccessionNumber": "",
      "AcquisitionMatrix": [108, 0, 0, 108],
      "AngioFlag": "N",
      "BitsAllocated": 16,
      "BitsStored": 12,
      "BodyPartExamined": "BRAIN",
      "Columns": 864,
      "EchoNumbers": 1,
      "EchoTime": 31.0,
      "EchoTrainLength": 95,
      "FlipAngle": 64.0,
      "HighBit": 11,
      "ImageOrientationPatient": [0.99563740917737, 0.09286596810967, -0.0090587755036, -0.0906101059237, 0.93912306732364, -0.3314176717152],
      "ImagePositionPatient": [-773.52618091762, -922.95937390876, 242.45778294553],
      "ImageType": [
        "ORIGINAL",
        "PRIMARY",
        "M",
        "ND",
        "MOSAIC"
],
      "ImagedNucleus": "1H",
      "ImagingFrequency": 123.2574,
      "InPlanePhaseEncodingDirection": "COL",
      "MRAcquisitionType": "2D",
      "MagneticFieldStrength": 3.0,
      "Manufacturer": "SIEMENS",
      "ManufacturerModelName": "Prisma",
      "Modality": "MR",
      "NumberOfAverages": 1.0,
      "NumberOfPhaseEncodingSteps": 95,
      "PercentPhaseFieldOfView": 100.0,
      "PercentSampling": 100.0,
      "PerformedProcedureStepStartTime": "133400.902000",
      "PhotometricInterpretation": "MONOCHROME2",
      "PixelBandwidth": 2205.0,
      "PixelRepresentation": 0,
      "PixelSpacing": [1.990740776062, 1.990740776062],
      "PositionReferenceIndicator": "",
      "ProtocolName": "Run4_bold_s4_TR1.28",
      "RepetitionTime": 1280.0,
      "Rows": 864,
      "SAR": 0.07722964399327,
      "SamplesPerPixel": 1,
      "ScanOptions": [
        "PFP",
        "FS"
],
      "ScanningSequence": "EP",
      "SequenceName": "*epfid2d1_108",
      "SequenceVariant": "SK",
      "SeriesDescription": "Run4_bold_s4_TR1.28",
      "SeriesNumber": 9,
      "SeriesTime": "141247.082000",
      "SliceLocation": -59.337127596907,
      "SliceThickness": 2.0,
      "SmallestImagePixelValue": 0,
      "SoftwareVersions": "syngo MR E11",
      "SpacingBetweenSlices": 1.9999999533462,
      "SpecificCharacterSet": "ISO_IR 100",
      "StudyID": "1",
      "StudyTime": "133400.831000",
      "TransmitCoilName": "Body",
      "VariableFlipAngleFlag": "N",
      "WindowCenterWidthExplanation": "Algo1",
      "dBdt": 0.0},
    "slices": {}
  },
  "time": {
    "samples": {
      "AcquisitionNumber": [1, 2, 3, 4, 5, 6, 7, 8, 9, 10, 11, 12, 13, 14, 15, 16, 17, 18, 19, 20, 21, 22, 23, 24, 25, 26, 27, 28, 29, 30, 31, 32, 33, 34, 35, 36, 37, 38, 39, 40, 41, 42, 43, 44, 45, 46, 47, 48, 49, 50, 51, 52, 53, 54, 55, 56, 57, 58, 59, 60, 61, 62, 63, 64, 65, 66, 67, 68, 69, 70, 71, 72, 73, 74, 75, 76, 77, 78, 79, 80, 81, 82, 83, 84, 85, 86, 87, 88, 89, 90, 91, 92, 93, 94, 95, 96, 97, 98, 99, 100, 101, 102, 103, 104, 105, 106, 107, 108, 109, 110, 111, 112, 113, 114, 115, 116, 117, 118, 119, 120, 121, 122, 123, 124, 125, 126, 127, 128, 129, 130, 131, 132, 133, 134, 135, 136, 137, 138, 139, 140, 141, 142, 143, 144, 145, 146, 147, 148, 149, 150, 151, 152, 153, 154, 155, 156, 157, 158, 159, 160, 161, 162, 163, 164, 165, 166, 167, 168, 169, 170, 171, 172, 173, 174, 175, 176, 177, 178, 179, 180, 181, 182, 183, 184, 185, 186, 187, 188, 189, 190, 191, 192, 193, 194, 195, 196, 197, 198, 199, 200, 201, 202, 203, 204, 205, 206, 207, 208, 209, 210, 211, 212, 213, 214, 215, 216, 217, 218, 219, 220, 221, 222, 223, 224, 225, 226, 227, 228, 229, 230, 231, 232, 233, 234, 235, 236, 237, 238, 239, 240, 241, 242, 243, 244, 245, 246, 247, 248, 249, 250, 251, 252, 253, 254, 255, 256, 257, 258, 259, 260, 261, 262, 263, 264, 265, 266, 267, 268, 269, 270, 271, 272, 273, 274, 275, 276, 277, 278, 279, 280, 281, 282, 283, 284, 285, 286, 287, 288, 289, 290, 291, 292, 293, 294, 295, 296, 297, 298, 299, 300, 301, 302, 303, 304, 305, 306, 307, 308, 309, 310, 311, 312, 313, 314, 315, 316, 317, 318, 319, 320, 321, 322, 323, 324, 325, 326, 327, 328, 329, 330, 331, 332, 333, 334, 335, 336, 337, 338, 339, 340, 341, 342, 343, 344, 345, 346, 347, 348, 349, 350, 351, 352, 353, 354, 355, 356, 357, 358, 359, 360, 361, 362, 363, 364, 365, 366, 367, 368, 369, 370, 371],
      "AcquisitionTime": ["141202.300000", "141203.580000", "141204.860000", "141206.140000", "141207.420000", "141208.700000", "141209.980000", "141211.260000", "141212.540000", "141213.820000", "141215.100000", "141216.380000", "141217.660000", "141218.940000", "141220.220000", "141221.500000", "141222.780000", "141224.060000", "141225.340000", "141226.620000", "141227.900000", "141229.180000", "141230.460000", "141231.740000", "141233.020000", "141234.300000", "141235.580000", "141236.860000", "141238.140000", "141239.420000", "141240.700000", "141241.980000", "141243.260000", "141244.540000", "141245.820000", "141247.100000", "141248.380000", "141249.660000", "141250.940000", "141252.220000", "141253.500000", "141254.780000", "141256.060000", "141257.340000", "141258.620000", "141259.900000", "141301.180000", "141302.460000", "141303.740000", "141305.020000", "141306.300000", "141307.580000", "141308.860000", "141310.140000", "141311.420000", "141312.700000", "141313.980000", "141315.260000", "141316.540000", "141317.820000", "141319.100000", "141320.380000", "141321.660000", "141322.940000", "141324.220000", "141325.500000", "141326.780000", "141328.060000", "141329.340000", "141330.620000", "141331.900000", "141333.180000", "141334.460000", "141335.740000", "141337.020000", "141338.300000", "141339.580000", "141340.860000", "141342.140000", "141343.420000", "141344.700000", "141345.980000", "141347.260000", "141348.540000", "141349.820000", "141351.100000", "141352.380000", "141353.660000", "141354.940000", "141356.220000", "141357.500000", "141358.780000", "141400.060000", "141401.340000", "141402.620000", "141403.900000", "141405.180000", "141406.460000", "141407.740000", "141409.020000", "141410.300000", "141411.580000", "141412.860000", "141414.140000", "141415.420000", "141416.700000", "141417.980000", "141419.260000", "141420.540000", "141421.820000", "141423.100000", "141424.380000", "141425.660000", "141426.940000", "141428.220000", "141429.500000", "141430.780000", "141432.060000", "141433.340000", "141434.620000", "141435.900000", "141437.180000", "141438.460000", "141439.740000", "141441.020000", "141442.300000", "141443.580000", "141444.860000", "141446.140000", "141447.420000", "141448.700000", "141449.980000", "141451.260000", "141452.540000", "141453.820000", "141455.100000", "141456.380000", "141457.660000", "141458.940000", "141500.220000", "141501.500000", "141502.780000", "141504.060000", "141505.340000", "141506.620000", "141507.900000", "141509.180000", "141510.460000", "141511.740000", "141513.020000", "141514.300000", "141515.580000", "141516.860000", "141518.140000", "141519.420000", "141520.700000", "141521.980000", "141523.260000", "141524.540000", "141525.820000", "141527.100000", "141528.380000", "141529.660000", "141530.940000", "141532.220000", "141533.500000", "141534.780000", "141536.060000", "141537.340000", "141538.620000", "141539.900000", "141541.180000", "141542.460000", "141543.740000", "141545.020000", "141546.300000", "141547.580000", "141548.860000", "141550.140000", "141551.420000", "141552.700000", "141553.980000", "141555.260000", "141556.540000", "141557.820000", "141559.100000", "141600.380000", "141601.660000", "141602.940000", "141604.220000", "141605.500000", "141606.780000", "141608.060000", "141609.340000", "141610.620000", "141611.900000", "141613.180000", "141614.460000", "141615.740000", "141617.020000", "141618.300000", "141619.580000", "141620.860000", "141622.140000", "141623.420000", "141624.700000", "141625.980000", "141627.260000", "141628.540000", "141629.820000", "141631.100000", "141632.380000", "141633.660000", "141634.940000", "141636.220000", "141637.500000", "141638.780000", "141640.060000", "141641.340000", "141642.620000", "141643.900000", "141645.180000", "141646.460000", "141647.740000", "141649.020000", "141650.300000", "141651.580000", "141652.860000", "141654.140000", "141655.420000", "141656.700000", "141657.980000", "141659.260000", "141700.540000", "141701.820000", "141703.100000", "141704.380000", "141705.660000", "141706.940000", "141708.220000", "141709.500000", "141710.780000", "141712.060000", "141713.340000", "141714.620000", "141715.900000", "141717.180000", "141718.460000", "141719.740000", "141721.020000", "141722.300000", "141723.580000", "141724.860000", "141726.140000", "141727.420000", "141728.700000", "141729.980000", "141731.260000", "141732.540000", "141733.820000", "141735.100000", "141736.380000", "141737.660000", "141738.940000", "141740.220000", "141741.500000", "141742.780000", "141744.060000", "141745.340000", "141746.620000", "141747.900000", "141749.180000", "141750.460000", "141751.740000", "141753.020000", "141754.300000", "141755.580000", "141756.860000", "141758.140000", "141759.420000", "141800.700000", "141801.980000", "141803.260000", "141804.540000", "141805.820000", "141807.100000", "141808.380000", "141809.660000", "141810.940000", "141812.220000", "141813.500000", "141814.780000", "141816.060000", "141817.340000", "141818.620000", "141819.900000", "141821.180000", "141822.460000", "141823.740000", "141825.020000", "141826.300000", "141827.580000", "141828.860000", "141830.140000", "141831.420000", "141832.700000", "141833.980000", "141835.260000", "141836.540000", "141837.820000", "141839.100000", "141840.380000", "141841.660000", "141842.940000", "141844.220000", "141845.500000", "141846.780000", "141848.060000", "141849.340000", "141850.620000", "141851.900000", "141853.180000", "141854.460000", "141855.740000", "141857.020000", "141858.300000", "141859.580000", "141900.860000", "141902.140000", "141903.420000", "141904.700000", "141905.980000", "141907.260000", "141908.540000", "141909.820000", "141911.100000", "141912.380000", "141913.660000", "141914.940000", "141916.220000", "141917.500000", "141918.780000", "141920.060000", "141921.340000", "141922.620000", "141923.900000", "141925.180000", "141926.460000", "141927.740000", "141929.020000", "141930.300000", "141931.580000", "141932.860000", "141934.140000", "141935.420000", "141936.700000", "141937.980000", "141939.260000", "141940.540000", "141941.820000", "141943.100000", "141944.380000", "141945.660000", "141946.940000", "141948.220000", "141949.500000", "141950.780000", "141952.060000", "141953.340000", "141954.620000", "141955.900000"],
      "ContentTime": ["141247.086000", "141247.090000", "141247.092000", "141247.096000", "141247.099000", "141247.102000", "141247.105000", "141247.108000", "141247.111000", "141247.114000", "141247.116000", "141247.119000", "141247.122000", "141247.131000", "141247.134000", "141247.137000", "141247.140000", "141247.143000", "141247.146000", "141247.149000", "141247.151000", "141247.154000", "141247.157000", "141247.160000", "141247.163000", "141247.166000", "141247.169000", "141247.172000", "141247.175000", "141247.178000", "141247.181000", "141247.184000", "141247.186000", "141247.189000", "141327.081000", "141327.084000", "141327.087000", "141327.090000", "141327.093000", "141327.096000", "141327.099000", "141327.101000", "141327.104000", "141327.113000", "141327.116000", "141327.118000", "141327.121000", "141327.124000", "141327.127000", "141327.130000", "141327.133000", "141327.136000", "141327.139000", "141327.142000", "141327.145000", "141327.148000", "141327.150000", "141327.153000", "141327.156000", "141327.159000", "141327.162000", "141327.165000", "141327.168000", "141327.171000", "141327.174000", "141327.176000", "141407.080000", "141407.083000", "141407.086000", "141407.089000", "141407.092000", "141407.095000", "141407.097000", "141407.100000", "141407.103000", "141407.106000", "141407.112000", "141407.115000", "141407.119000", "141407.122000", "141407.125000", "141407.128000", "141407.130000", "141407.133000", "141407.136000", "141407.139000", "141407.142000", "141407.145000", "141407.148000", "141407.151000", "141407.154000", "141407.157000", "141407.160000", "141407.162000", "141407.165000", "141407.168000", "141407.171000", "141447.080000", "141447.083000", "141447.087000", "141447.090000", "141447.093000", "141447.096000", "141447.099000", "141447.102000", "141447.105000", "141447.107000", "141447.110000", "141447.113000", "141447.116000", "141447.119000", "141447.122000", "141447.125000", "141447.128000", "141447.141000", "141447.144000", "141447.147000", "141447.150000", "141447.153000", "141447.156000", "141447.159000", "141447.162000", "141447.165000", "141447.167000", "141447.170000", "141447.173000", "141447.176000", "141447.179000", "141527.081000", "141527.084000", "141527.087000", "141527.090000", "141527.093000", "141527.096000", "141527.099000", "141527.102000", "141527.104000", "141527.107000", "141527.110000", "141527.113000", "141527.116000", "141527.119000", "141527.122000", "141527.125000", "141527.128000", "141527.131000", "141527.134000", "141527.137000", "141527.139000", "141527.142000", "141527.145000", "141527.148000", "141527.151000", "141527.154000", "141527.157000", "141527.160000", "141527.163000", "141527.166000", "141527.169000", "141607.081000", "141607.084000", "141607.087000", "141607.090000", "141607.093000", "141607.096000", "141607.099000", "141607.102000", "141607.105000", "141607.107000", "141607.110000", "141607.113000", "141607.116000", "141607.119000", "141607.122000", "141607.141000", "141607.144000", "141607.153000", "141607.156000", "141607.159000", "141607.162000", "141607.165000", "141607.167000", "141607.170000", "141607.173000", "141607.176000", "141607.179000", "141607.182000", "141607.185000", "141607.188000", "141607.191000", "141607.194000", "141647.080000", "141647.084000", "141647.087000", "141647.090000", "141647.093000", "141647.096000", "141647.099000", "141647.102000", "141647.105000", "141647.108000", "141647.111000", "141647.114000", "141647.117000", "141647.120000", "141647.125000", "141647.128000", "141647.131000", "141647.134000", "141647.137000", "141647.140000", "141647.143000", "141647.146000", "141647.149000", "141647.152000", "141647.155000", "141647.158000", "141647.161000", "141647.164000", "141647.167000", "141647.171000", "141647.174000", "141727.081000", "141727.084000", "141727.087000", "141727.090000", "141727.093000", "141727.096000", "141727.099000", "141727.102000", "141727.105000", "141727.107000", "141727.110000", "141727.113000", "141727.116000", "141727.119000", "141727.122000", "141727.125000", "141727.128000", "141727.131000", "141727.134000", "141727.137000", "141727.140000", "141727.142000", "141727.145000", "141727.148000", "141727.151000", "141727.154000", "141727.157000", "141727.160000", "141727.163000", "141727.166000", "141727.169000", "141807.081000", "141807.084000", "141807.087000", "141807.090000", "141807.093000", "141807.096000", "141807.099000", "141807.101000", "141807.104000", "141807.107000", "141807.110000", "141807.113000", "141807.116000", "141807.119000", "141807.122000", "141807.125000", "141807.128000", "141807.131000", "141807.134000", "141807.137000", "141807.140000", "141807.143000", "141807.146000", "141807.148000", "141807.151000", "141807.154000", "141807.157000", "141807.160000", "141807.163000", "141807.166000", "141807.169000", "141847.080000", "141847.083000", "141847.086000", "141847.089000", "141847.092000", "141847.095000", "141847.098000", "141847.101000", "141847.104000", "141847.106000", "141847.109000", "141847.112000", "141847.115000", "141847.118000", "141847.121000", "141847.124000", "141847.127000", "141847.130000", "141847.133000", "141847.136000", "141847.139000", "141847.142000", "141847.144000", "141847.147000", "141847.150000", "141847.153000", "141847.156000", "141847.159000", "141847.162000", "141847.165000", "141847.168000", "141847.171000", "141927.081000", "141927.084000", "141927.087000", "141927.090000", "141927.093000", "141927.096000", "141927.099000", "141927.102000", "141927.105000", "141927.108000", "141927.111000", "141927.114000", "141927.117000", "141927.120000", "141927.123000", "141927.126000", "141927.129000", "141927.132000", "141927.135000", "141927.138000", "141927.141000", "141927.144000", "141927.146000", "141927.149000", "141927.152000", "141927.155000", "141927.158000", "141927.161000", "141927.164000", "141927.167000", "141927.170000", "141957.287000", "141957.291000", "141957.315000", "141957.319000", "141957.324000", "141957.329000", "141957.343000", "141957.347000", "141957.350000", "141957.353000", "141957.356000", "141957.359000", "141957.362000", "141957.365000", "141957.368000", "141957.371000", "141957.374000", "141957.377000", "141957.380000", "141957.383000", "141957.386000", "141957.389000", "141957.392000", "141957.395000"],
      "InstanceCreationTime": ["141247.086000", "141247.090000", "141247.092000", "141247.096000", "141247.099000", "141247.102000", "141247.105000", "141247.108000", "141247.111000", "141247.114000", "141247.116000", "141247.119000", "141247.122000", "141247.131000", "141247.134000", "141247.137000", "141247.140000", "141247.143000", "141247.146000", "141247.149000", "141247.151000", "141247.154000", "141247.157000", "141247.160000", "141247.163000", "141247.166000", "141247.169000", "141247.172000", "141247.175000", "141247.178000", "141247.181000", "141247.184000", "141247.186000", "141247.189000", "141327.081000", "141327.084000", "141327.087000", "141327.090000", "141327.093000", "141327.096000", "141327.099000", "141327.101000", "141327.104000", "141327.113000", "141327.116000", "141327.118000", "141327.121000", "141327.124000", "141327.127000", "141327.130000", "141327.133000", "141327.136000", "141327.139000", "141327.142000", "141327.145000", "141327.148000", "141327.150000", "141327.153000", "141327.156000", "141327.159000", "141327.162000", "141327.165000", "141327.168000", "141327.171000", "141327.174000", "141327.176000", "141407.080000", "141407.083000", "141407.086000", "141407.089000", "141407.092000", "141407.095000", "141407.097000", "141407.100000", "141407.103000", "141407.106000", "141407.112000", "141407.115000", "141407.119000", "141407.122000", "141407.125000", "141407.128000", "141407.130000", "141407.133000", "141407.136000", "141407.139000", "141407.142000", "141407.145000", "141407.148000", "141407.151000", "141407.154000", "141407.157000", "141407.160000", "141407.162000", "141407.165000", "141407.168000", "141407.171000", "141447.080000", "141447.083000", "141447.087000", "141447.090000", "141447.093000", "141447.096000", "141447.099000", "141447.102000", "141447.105000", "141447.107000", "141447.110000", "141447.113000", "141447.116000", "141447.119000", "141447.122000", "141447.125000", "141447.128000", "141447.141000", "141447.144000", "141447.147000", "141447.150000", "141447.153000", "141447.156000", "141447.159000", "141447.162000", "141447.165000", "141447.167000", "141447.170000", "141447.173000", "141447.176000", "141447.179000", "141527.081000", "141527.084000", "141527.087000", "141527.090000", "141527.093000", "141527.096000", "141527.099000", "141527.102000", "141527.104000", "141527.107000", "141527.110000", "141527.113000", "141527.116000", "141527.119000", "141527.122000", "141527.125000", "141527.128000", "141527.131000", "141527.134000", "141527.137000", "141527.139000", "141527.142000", "141527.145000", "141527.148000", "141527.151000", "141527.154000", "141527.157000", "141527.160000", "141527.163000", "141527.166000", "141527.169000", "141607.081000", "141607.084000", "141607.087000", "141607.090000", "141607.093000", "141607.096000", "141607.099000", "141607.102000", "141607.105000", "141607.107000", "141607.110000", "141607.113000", "141607.116000", "141607.119000", "141607.122000", "141607.141000", "141607.144000", "141607.153000", "141607.156000", "141607.159000", "141607.162000", "141607.165000", "141607.167000", "141607.170000", "141607.173000", "141607.176000", "141607.179000", "141607.182000", "141607.185000", "141607.188000", "141607.191000", "141607.194000", "141647.080000", "141647.084000", "141647.087000", "141647.090000", "141647.093000", "141647.096000", "141647.099000", "141647.102000", "141647.105000", "141647.108000", "141647.111000", "141647.114000", "141647.117000", "141647.120000", "141647.125000", "141647.128000", "141647.131000", "141647.134000", "141647.137000", "141647.140000", "141647.143000", "141647.146000", "141647.149000", "141647.152000", "141647.155000", "141647.158000", "141647.161000", "141647.164000", "141647.167000", "141647.171000", "141647.174000", "141727.081000", "141727.084000", "141727.087000", "141727.090000", "141727.093000", "141727.096000", "141727.099000", "141727.102000", "141727.105000", "141727.107000", "141727.110000", "141727.113000", "141727.116000", "141727.119000", "141727.122000", "141727.125000", "141727.128000", "141727.131000", "141727.134000", "141727.137000", "141727.140000", "141727.142000", "141727.145000", "141727.148000", "141727.151000", "141727.154000", "141727.157000", "141727.160000", "141727.163000", "141727.166000", "141727.169000", "141807.081000", "141807.084000", "141807.087000", "141807.090000", "141807.093000", "141807.096000", "141807.099000", "141807.101000", "141807.104000", "141807.107000", "141807.110000", "141807.113000", "141807.116000", "141807.119000", "141807.122000", "141807.125000", "141807.128000", "141807.131000", "141807.134000", "141807.137000", "141807.140000", "141807.143000", "141807.146000", "141807.148000", "141807.151000", "141807.154000", "141807.157000", "141807.160000", "141807.163000", "141807.166000", "141807.169000", "141847.080000", "141847.083000", "141847.086000", "141847.089000", "141847.092000", "141847.095000", "141847.098000", "141847.101000", "141847.104000", "141847.106000", "141847.109000", "141847.112000", "141847.115000", "141847.118000", "141847.121000", "141847.124000", "141847.127000", "141847.130000", "141847.133000", "141847.136000", "141847.139000", "141847.142000", "141847.144000", "141847.147000", "141847.150000", "141847.153000", "141847.156000", "141847.159000", "141847.162000", "141847.165000", "141847.168000", "141847.171000", "141927.081000", "141927.084000", "141927.087000", "141927.090000", "141927.093000", "141927.096000", "141927.099000", "141927.102000", "141927.105000", "141927.108000", "141927.111000", "141927.114000", "141927.117000", "141927.120000", "141927.123000", "141927.126000", "141927.129000", "141927.132000", "141927.135000", "141927.138000", "141927.141000", "141927.144000", "141927.146000", "141927.149000", "141927.152000", "141927.155000", "141927.158000", "141927.161000", "141927.164000", "141927.167000", "141927.170000", "141957.287000", "141957.291000", "141957.315000", "141957.319000", "141957.324000", "141957.329000", "141957.343000", "141957.347000", "141957.350000", "141957.353000", "141957.356000", "141957.359000", "141957.362000", "141957.365000", "141957.368000", "141957.371000", "141957.374000", "141957.377000", "141957.380000", "141957.383000", "141957.386000", "141957.389000", "141957.392000", "141957.395000"],
      "InstanceNumber": [1, 2, 3, 4, 5, 6, 7, 8, 9, 10, 11, 12, 13, 14, 15, 16, 17, 18, 19, 20, 21, 22, 23, 24, 25, 26, 27, 28, 29, 30, 31, 32, 33, 34, 35, 36, 37, 38, 39, 40, 41, 42, 43, 44, 45, 46, 47, 48, 49, 50, 51, 52, 53, 54, 55, 56, 57, 58, 59, 60, 61, 62, 63, 64, 65, 66, 67, 68, 69, 70, 71, 72, 73, 74, 75, 76, 77, 78, 79, 80, 81, 82, 83, 84, 85, 86, 87, 88, 89, 90, 91, 92, 93, 94, 95, 96, 97, 98, 99, 100, 101, 102, 103, 104, 105, 106, 107, 108, 109, 110, 111, 112, 113, 114, 115, 116, 117, 118, 119, 120, 121, 122, 123, 124, 125, 126, 127, 128, 129, 130, 131, 132, 133, 134, 135, 136, 137, 138, 139, 140, 141, 142, 143, 144, 145, 146, 147, 148, 149, 150, 151, 152, 153, 154, 155, 156, 157, 158, 159, 160, 161, 162, 163, 164, 165, 166, 167, 168, 169, 170, 171, 172, 173, 174, 175, 176, 177, 178, 179, 180, 181, 182, 183, 184, 185, 186, 187, 188, 189, 190, 191, 192, 193, 194, 195, 196, 197, 198, 199, 200, 201, 202, 203, 204, 205, 206, 207, 208, 209, 210, 211, 212, 213, 214, 215, 216, 217, 218, 219, 220, 221, 222, 223, 224, 225, 226, 227, 228, 229, 230, 231, 232, 233, 234, 235, 236, 237, 238, 239, 240, 241, 242, 243, 244, 245, 246, 247, 248, 249, 250, 251, 252, 253, 254, 255, 256, 257, 258, 259, 260, 261, 262, 263, 264, 265, 266, 267, 268, 269, 270, 271, 272, 273, 274, 275, 276, 277, 278, 279, 280, 281, 282, 283, 284, 285, 286, 287, 288, 289, 290, 291, 292, 293, 294, 295, 296, 297, 298, 299, 300, 301, 302, 303, 304, 305, 306, 307, 308, 309, 310, 311, 312, 313, 314, 315, 316, 317, 318, 319, 320, 321, 322, 323, 324, 325, 326, 327, 328, 329, 330, 331, 332, 333, 334, 335, 336, 337, 338, 339, 340, 341, 342, 343, 344, 345, 346, 347, 348, 349, 350, 351, 352, 353, 354, 355, 356, 357, 358, 359, 360, 361, 362, 363, 364, 365, 366, 367, 368, 369, 370, 371],
