{
  "AcquisitionMatrixPE": 108,
  "AcquisitionNumber": 1,
  "AcquisitionTime": "16:40:43.865000",
  "BandwidthPerPixelPhaseEncode": 15.964,
  "BaseResolution": 108,
  "BodyPartExamined": "BRAIN",
  "ConsistencyInfo": "N4_VE11C_LATEST_20160120",
  "ConversionSoftware": "dcm2niix",
  "ConversionSoftwareVersion": "v1.0.20180622 GCC6.3.0",
  "DerivedVendorReportedEchoSpacing": 0.000580009,
  "DeviceSerialNumber": "66054",
  "DwellTime": 2.1e-06,
  "EchoTime": 0.031,
  "EchoTrainLength": 95,
  "EffectiveEchoSpacing": 0.000580009,
  "FlipAngle": 64,
  "ImageOrientationPatientDICOM": [0.999288, -0.00803646, 0.0368542, 0.0156981, 0.977013, -0.2126],
  "ImageType": [
    "ORIGINAL",
    "PRIMARY",
    "M",
    "ND",
    "MOSAIC"
],
  "InPlanePhaseEncodingDirectionDICOM": "COL",
  "InstitutionAddress": "Chemin_des_Mines_9_Geneve_District_CH_1211",
  "InstitutionName": "Fondation_Campus_Biotech_Geneva",
  "InstitutionalDepartmentName": "Department",
  "MRAcquisitionType": "2D",
  "MagneticFieldStrength": 3,
  "Manufacturer": "Siemens",
  "ManufacturersModelName": "Prisma",
  "Modality": "MR",
  "MultibandAccelerationFactor": 4,
  "PartialFourier": 0.875,
  "PatientPosition": "HFS",
  "PercentPhaseFOV": 100,
  "PhaseEncodingDirection": "j-",
  "PhaseEncodingSteps": 95,
  "PhaseResolution": 1,
  "PixelBandwidth": 2205,
  "ProcedureStepDescription": "J.DRM_Michael",
  "ProtocolName": "Run5_bold_s4_TR1.28",
  "PulseSequenceDetails": "%SiemensSeq%_ep2d_bold",
  "ReceiveCoilActiveElements": "HC1-7;NC1,2",
  "ReceiveCoilName": "HeadNeck_64",
  "ReconMatrixPE": 108,
  "RepetitionTime": 1.28,
  "SAR": 0.0706596,
  "ScanOptions": "PFP_FS",
  "ScanningSequence": "EP",
  "SequenceName": "_epfid2d1_108",
  "SequenceVariant": "SK",
  "SeriesDescription": "Run5_bold_s4_TR1.28",
  "SeriesNumber": 13,
  "ShimSetting": [-1254, -11675, 6439, 505, 150, -72, 155, 47],
  "SliceThickness": 2,
  "SliceTiming": [0.945, 0, 0.63, 0.08, 0.71, 0.1575, 0.7875, 0.2375, 0.8675, 0.395, 1.025, 0.4725, 1.1025, 0.5525, 1.1825, 0.315, 0.945, 0, 0.63, 0.08, 0.71, 0.1575, 0.7875, 0.2375, 0.8675, 0.395, 1.025, 0.4725, 1.1025, 0.5525, 1.1825, 0.315, 0.945, 0, 0.63, 0.08, 0.71, 0.1575, 0.7875, 0.2375, 0.8675, 0.395, 1.025, 0.4725, 1.1025, 0.5525, 1.1825, 0.315, 0.945, 0, 0.63, 0.08, 0.71, 0.1575, 0.7875, 0.2375, 0.8675, 0.395, 1.025, 0.4725, 1.1025, 0.5525, 1.1825, 0.315],
  "SoftwareVersions": "syngo_MR_E11",
  "SpacingBetweenSlices": 2,
  "StationName": "AWP66054",
  "TaskName": "main",
  "TotalReadoutTime": 0.0620609,
  "TxRefAmp": 264.591,
  "dcmmeta_affine": [
    [-1.9893240928649902, 0.03125087916851044, 0.06859704852104187, 105.4787826538086],
    [0.01599849946796894, 1.9449799060821533, -0.42605501413345337, -78.81404876708984],
    [0.07336723804473877, 0.42323198914527893, 1.952888011932373, -70.1017074584961],
    [0.0, 0.0, 0.0, 1.0]
],
  "dcmmeta_reorient_transform": [
    [0.0, -1.0, 0.0, 107.0],
    [1.0, 0.0, 0.0, 0.0],
    [0.0, 0.0, 1.0, 0.0],
    [0.0, 0.0, 0.0, 1.0]
],
  "dcmmeta_shape": [108, 108, 64, 373],
  "dcmmeta_slice_dim": 2,
  "dcmmeta_version": 0.6,
  "global": {
    "const": {
      "AccessionNumber": "",
      "AcquisitionMatrix": [108, 0, 0, 108],
      "AngioFlag": "N",
      "BitsAllocated": 16,
      "BitsStored": 12,
      "BodyPartExamined": "BRAIN",
      "Columns": 864,
      "EchoNumbers": 1,
      "EchoTime": 31.0,
      "EchoTrainLength": 95,
      "FlipAngle": 64.0,
      "HighBit": 11,
      "ImageOrientationPatient": [0.9992883369591, -0.0080364554066, 0.03685423994623, 0.01569811513285, 0.97701315330204, -0.2126002527188],
      "ImagePositionPatient": [-872.59994706642, -858.45378311148, 107.43298983428],
      "ImageType": [
        "ORIGINAL",
        "PRIMARY",
        "M",
        "ND",
        "MOSAIC"
],
      "ImagedNucleus": "1H",
      "ImagingFrequency": 123.25738,
      "InPlanePhaseEncodingDirection": "COL",
      "MRAcquisitionType": "2D",
      "MagneticFieldStrength": 3.0,
      "Manufacturer": "SIEMENS",
      "ManufacturerModelName": "Prisma",
      "Modality": "MR",
      "NumberOfAverages": 1.0,
      "NumberOfPhaseEncodingSteps": 95,
      "PercentPhaseFieldOfView": 100.0,
      "PercentSampling": 100.0,
      "PerformedProcedureStepStartTime": "151123.816000",
      "PhotometricInterpretation": "MONOCHROME2",
      "PixelBandwidth": 2205.0,
      "PixelRepresentation": 0,
      "PixelSpacing": [1.990740776062, 1.990740776062],
      "PositionReferenceIndicator": "",
      "ProtocolName": "Run5_bold_s4_TR1.28",
      "RepetitionTime": 1280.0,
      "Rows": 864,
      "SAR": 0.07065962254594,
      "SamplesPerPixel": 1,
      "ScanOptions": [
        "PFP",
        "FS"
],
      "ScanningSequence": "EP",
      "SequenceName": "*epfid2d1_108",
      "SequenceVariant": "SK",
      "SeriesDescription": "Run5_bold_s4_TR1.28",
      "SeriesNumber": 13,
      "SeriesTime": "164112.153000",
      "SliceLocation": -48.043069182852,
      "SliceThickness": 2.0,
      "SmallestImagePixelValue": 0,
      "SoftwareVersions": "syngo MR E11",
      "SpacingBetweenSlices": 2.0000000498554,
      "SpecificCharacterSet": "ISO_IR 100",
      "StudyID": "1",
      "StudyTime": "151123.763000",
      "TransmitCoilName": "Body",
      "VariableFlipAngleFlag": "N",
      "WindowCenterWidthExplanation": "Algo1",
      "dBdt": 0.0},
    "slices": {}
  },
  "time": {
    "samples": {
      "AcquisitionNumber": [1, 2, 3, 4, 5, 6, 7, 8, 9, 10, 11, 12, 13, 14, 15, 16, 17, 18, 19, 20, 21, 22, 23, 24, 25, 26, 27, 28, 29, 30, 31, 32, 33, 34, 35, 36, 37, 38, 39, 40, 41, 42, 43, 44, 45, 46, 47, 48, 49, 50, 51, 52, 53, 54, 55, 56, 57, 58, 59, 60, 61, 62, 63, 64, 65, 66, 67, 68, 69, 70, 71, 72, 73, 74, 75, 76, 77, 78, 79, 80, 81, 82, 83, 84, 85, 86, 87, 88, 89, 90, 91, 92, 93, 94, 95, 96, 97, 98, 99, 100, 101, 102, 103, 104, 105, 106, 107, 108, 109, 110, 111, 112, 113, 114, 115, 116, 117, 118, 119, 120, 121, 122, 123, 124, 125, 126, 127, 128, 129, 130, 131, 132, 133, 134, 135, 136, 137, 138, 139, 140, 141, 142, 143, 144, 145, 146, 147, 148, 149, 150, 151, 152, 153, 154, 155, 156, 157, 158, 159, 160, 161, 162, 163, 164, 165, 166, 167, 168, 169, 170, 171, 172, 173, 174, 175, 176, 177, 178, 179, 180, 181, 182, 183, 184, 185, 186, 187, 188, 189, 190, 191, 192, 193, 194, 195, 196, 197, 198, 199, 200, 201, 202, 203, 204, 205, 206, 207, 208, 209, 210, 211, 212, 213, 214, 215, 216, 217, 218, 219, 220, 221, 222, 223, 224, 225, 226, 227, 228, 229, 230, 231, 232, 233, 234, 235, 236, 237, 238, 239, 240, 241, 242, 243, 244, 245, 246, 247, 248, 249, 250, 251, 252, 253, 254, 255, 256, 257, 258, 259, 260, 261, 262, 263, 264, 265, 266, 267, 268, 269, 270, 271, 272, 273, 274, 275, 276, 277, 278, 279, 280, 281, 282, 283, 284, 285, 286, 287, 288, 289, 290, 291, 292, 293, 294, 295, 296, 297, 298, 299, 300, 301, 302, 303, 304, 305, 306, 307, 308, 309, 310, 311, 312, 313, 314, 315, 316, 317, 318, 319, 320, 321, 322, 323, 324, 325, 326, 327, 328, 329, 330, 331, 332, 333, 334, 335, 336, 337, 338, 339, 340, 341, 342, 343, 344, 345, 346, 347, 348, 349, 350, 351, 352, 353, 354, 355, 356, 357, 358, 359, 360, 361, 362, 363, 364, 365, 366, 367, 368, 369, 370, 371, 372, 373],
      "AcquisitionTime": ["164043.865000", "164045.145000", "164046.425000", "164047.705000", "164048.985000", "164050.265000", "164051.545000", "164052.825000", "164054.105000", "164055.385000", "164056.665000", "164057.945000", "164059.225000", "164100.505000", "164101.785000", "164103.065000", "164104.345000", "164105.625000", "164106.905000", "164108.185000", "164109.465000", "164110.745000", "164112.025000", "164113.305000", "164114.585000", "164115.865000", "164117.145000", "164118.425000", "164119.705000", "164120.985000", "164122.265000", "164123.545000", "164124.825000", "164126.105000", "164127.385000", "164128.665000", "164129.945000", "164131.225000", "164132.505000", "164133.785000", "164135.065000", "164136.345000", "164137.625000", "164138.905000", "164140.185000", "164141.465000", "164142.745000", "164144.025000", "164145.305000", "164146.585000", "164147.865000", "164149.145000", "164150.425000", "164151.705000", "164152.985000", "164154.265000", "164155.545000", "164156.825000", "164158.105000", "164159.385000", "164200.665000", "164201.945000", "164203.225000", "164204.505000", "164205.785000", "164207.065000", "164208.345000", "164209.625000", "164210.905000", "164212.185000", "164213.465000", "164214.745000", "164216.025000", "164217.305000", "164218.585000", "164219.865000", "164221.145000", "164222.425000", "164223.705000", "164224.985000", "164226.265000", "164227.545000", "164228.825000", "164230.105000", "164231.385000", "164232.665000", "164233.945000", "164235.225000", "164236.505000", "164237.785000", "164239.065000", "164240.345000", "164241.625000", "164242.905000", "164244.185000", "164245.465000", "164246.745000", "164248.025000", "164249.305000", "164250.585000", "164251.865000", "164253.145000", "164254.425000", "164255.705000", "164256.985000", "164258.265000", "164259.545000", "164300.825000", "164302.105000", "164303.385000", "164304.665000", "164305.945000", "164307.225000", "164308.505000", "164309.785000", "164311.065000", "164312.345000", "164313.625000", "164314.905000", "164316.185000", "164317.465000", "164318.745000", "164320.025000", "164321.305000", "164322.585000", "164323.865000", "164325.145000", "164326.425000", "164327.705000", "164328.985000", "164330.265000", "164331.545000", "164332.825000", "164334.105000", "164335.385000", "164336.665000", "164337.945000", "164339.225000", "164340.505000", "164341.785000", "164343.065000", "164344.345000", "164345.625000", "164346.905000", "164348.185000", "164349.465000", "164350.745000", "164352.025000", "164353.305000", "164354.585000", "164355.865000", "164357.145000", "164358.425000", "164359.705000", "164400.985000", "164402.265000", "164403.545000", "164404.825000", "164406.105000", "164407.385000", "164408.665000", "164409.945000", "164411.225000", "164412.505000", "164413.785000", "164415.065000", "164416.345000", "164417.625000", "164418.905000", "164420.185000", "164421.465000", "164422.745000", "164424.025000", "164425.305000", "164426.585000", "164427.865000", "164429.145000", "164430.425000", "164431.705000", "164432.985000", "164434.265000", "164435.545000", "164436.825000", "164438.105000", "164439.385000", "164440.665000", "164441.945000", "164443.225000", "164444.505000", "164445.785000", "164447.065000", "164448.345000", "164449.625000", "164450.905000", "164452.185000", "164453.465000", "164454.745000", "164456.025000", "164457.305000", "164458.585000", "164459.865000", "164501.145000", "164502.425000", "164503.705000", "164504.985000", "164506.265000", "164507.545000", "164508.825000", "164510.105000", "164511.385000", "164512.665000", "164513.945000", "164515.225000", "164516.505000", "164517.785000", "164519.065000", "164520.345000", "164521.625000", "164522.905000", "164524.185000", "164525.465000", "164526.745000", "164528.025000", "164529.305000", "164530.585000", "164531.865000", "164533.145000", "164534.425000", "164535.705000", "164536.985000", "164538.265000", "164539.545000", "164540.825000", "164542.105000", "164543.385000", "164544.665000", "164545.945000", "164547.225000", "164548.505000", "164549.785000", "164551.065000", "164552.345000", "164553.625000", "164554.905000", "164556.185000", "164557.465000", "164558.745000", "164600.025000", "164601.305000", "164602.585000", "164603.865000", "164605.145000", "164606.425000", "164607.705000", "164608.985000", "164610.265000", "164611.545000", "164612.825000", "164614.105000", "164615.385000", "164616.665000", "164617.945000", "164619.225000", "164620.505000", "164621.785000", "164623.065000", "164624.345000", "164625.625000", "164626.905000", "164628.185000", "164629.465000", "164630.745000", "164632.025000", "164633.305000", "164634.585000", "164635.865000", "164637.145000", "164638.425000", "164639.705000", "164640.985000", "164642.265000", "164643.545000", "164644.825000", "164646.105000", "164647.385000", "164648.665000", "164649.945000", "164651.225000", "164652.505000", "164653.785000", "164655.065000", "164656.345000", "164657.625000", "164658.905000", "164700.185000", "164701.465000", "164702.745000", "164704.025000", "164705.305000", "164706.585000", "164707.865000", "164709.145000", "164710.425000", "164711.705000", "164712.985000", "164714.265000", "164715.545000", "164716.825000", "164718.105000", "164719.385000", "164720.665000", "164721.945000", "164723.225000", "164724.505000", "164725.785000", "164727.065000", "164728.345000", "164729.625000", "164730.905000", "164732.185000", "164733.465000", "164734.745000", "164736.025000", "164737.305000", "164738.585000", "164739.865000", "164741.145000", "164742.425000", "164743.705000", "164744.985000", "164746.265000", "164747.545000", "164748.825000", "164750.105000", "164751.385000", "164752.665000", "164753.945000", "164755.225000", "164756.505000", "164757.785000", "164759.065000", "164800.345000", "164801.625000", "164802.905000", "164804.185000", "164805.465000", "164806.745000", "164808.025000", "164809.305000", "164810.585000", "164811.865000", "164813.145000", "164814.425000", "164815.705000", "164816.985000", "164818.265000", "164819.545000", "164820.825000", "164822.105000", "164823.385000", "164824.665000", "164825.945000", "164827.225000", "164828.505000", "164829.785000", "164831.065000", "164832.345000", "164833.625000", "164834.905000", "164836.185000", "164837.465000", "164838.745000", "164840.025000"],
      "ContentTime": ["164112.157000", "164112.164000", "164112.167000", "164112.173000", "164112.176000", "164112.186000", "164112.188000", "164112.191000", "164112.194000", "164112.197000", "164112.200000", "164112.202000", "164112.205000", "164112.208000", "164112.212000", "164112.215000", "164112.218000", "164112.221000", "164112.224000", "164112.226000", "164112.229000", "164152.153000", "164152.156000", "164152.161000", "164152.167000", "164152.171000", "164152.174000", "164152.177000", "164152.180000", "164152.182000", "164152.185000", "164152.188000", "164152.191000", "164152.194000", "164152.197000", "164152.199000", "164152.202000", "164152.205000", "164152.208000", "164152.211000", "164152.214000", "164152.216000", "164152.219000", "164152.222000", "164152.229000", "164152.232000", "164152.234000", "164152.237000", "164152.240000", "164152.243000", "164152.246000", "164152.249000", "164232.153000", "164232.156000", "164232.159000", "164232.162000", "164232.165000", "164232.167000", "164232.170000", "164232.173000", "164232.176000", "164232.179000", "164232.182000", "164232.184000", "164232.187000", "164232.190000", "164232.193000", "164232.196000", "164232.199000", "164232.202000", "164232.204000", "164232.207000", "164232.210000", "164232.213000", "164232.216000", "164232.219000", "164232.233000", "164232.236000", "164232.239000", "164232.242000", "164232.245000", "164232.248000", "164232.251000", "164232.253000", "164312.152000", "164312.155000", "164312.158000", "164312.161000", "164312.163000", "164312.166000", "164312.169000", "164312.172000", "164312.175000", "164312.178000", "164312.181000", "164312.183000", "164312.186000", "164312.189000", "164312.192000", "164312.195000", "164312.198000", "164312.201000", "164312.204000", "164312.206000", "164312.209000", "164312.212000", "164312.215000", "164312.218000", "164312.221000", "164312.224000", "164312.227000", "164312.229000", "164312.232000", "164312.235000", "164312.238000", "164352.152000", "164352.155000", "164352.158000", "164352.161000", "164352.164000", "164352.167000", "164352.169000", "164352.172000", "164352.175000", "164352.178000", "164352.181000", "164352.184000", "164352.189000", "164352.191000", "164352.194000", "164352.197000", "164352.200000", "164352.203000", "164352.206000", "164352.208000", "164352.211000", "164352.214000", "164352.217000", "164352.220000", "164352.223000", "164352.226000", "164352.228000", "164352.231000", "164352.234000", "164352.237000", "164352.240000", "164432.153000", "164432.156000", "164432.159000", "164432.162000", "164432.165000", "164432.168000", "164432.171000", "164432.174000", "164432.176000", "164432.179000", "164432.182000", "164432.185000", "164432.188000", "164432.191000", "164432.194000", "164432.197000", "164432.200000", "164432.204000", "164432.207000", "164432.209000", "164432.212000", "164432.215000", "164432.218000", "164432.221000", "164432.224000", "164432.227000", "164432.230000", "164432.233000", "164432.236000", "164432.238000", "164432.241000", "164512.152000", "164512.155000", "164512.158000", "164512.168000", "164512.171000", "164512.174000", "164512.177000", "164512.185000", "164512.188000", "164512.191000", "164512.194000", "164512.197000", "164512.199000", "164512.202000", "164512.205000", "164512.208000", "164512.211000", "164512.214000", "164512.217000", "164512.220000", "164512.223000", "164512.225000", "164512.228000", "164512.231000", "164512.234000", "164512.237000", "164512.240000", "164512.243000", "164512.246000", "164512.248000", "164512.251000", "164512.254000", "164552.152000", "164552.155000", "164552.178000", "164552.195000", "164552.198000", "164552.201000", "164552.204000", "164552.207000", "164552.210000", "164552.213000", "164552.216000", "164552.218000", "164552.221000", "164552.224000", "164552.227000", "164552.230000", "164552.233000", "164552.236000", "164552.239000", "164552.241000", "164552.244000", "164552.247000", "164552.250000", "164552.253000", "164552.256000", "164552.259000", "164552.262000", "164552.265000", "164552.267000", "164552.270000", "164552.273000", "164632.153000", "164632.156000", "164632.182000", "164632.185000", "164632.188000", "164632.191000", "164632.194000", "164632.197000", "164632.200000", "164632.203000", "164632.205000", "164632.208000", "164632.211000", "164632.214000", "164632.217000", "164632.220000", "164632.223000", "164632.226000", "164632.228000", "164632.231000", "164632.234000", "164632.237000", "164632.240000", "164632.243000", "164632.246000", "164632.249000", "164632.251000", "164632.254000", "164632.269000", "164632.272000", "164632.274000", "164712.153000", "164712.156000", "164712.317000", "164712.319000", "164712.322000", "164712.325000", "164712.328000", "164712.331000", "164712.334000", "164712.337000", "164712.340000", "164712.343000", "164712.346000", "164712.348000", "164712.351000", "164712.354000", "164712.357000", "164712.360000", "164712.363000", "164712.366000", "164712.368000", "164712.371000", "164712.374000", "164712.377000", "164712.380000", "164712.383000", "164712.385000", "164712.388000", "164712.391000", "164712.394000", "164712.397000", "164752.152000", "164752.155000", "164752.158000", "164752.161000", "164752.164000", "164752.167000", "164752.170000", "164752.173000", "164752.176000", "164752.178000", "164752.181000", "164752.184000", "164752.187000", "164752.190000", "164752.193000", "164752.196000", "164752.199000", "164752.202000", "164752.204000", "164752.207000", "164752.210000", "164752.213000", "164752.216000", "164752.219000", "164752.222000", "164752.225000", "164752.228000", "164752.230000", "164752.233000", "164752.236000", "164752.239000", "164752.242000", "164832.152000", "164832.155000", "164832.158000", "164832.161000", "164832.164000", "164832.167000", "164832.169000", "164832.172000", "164832.175000", "164832.178000", "164832.181000", "164832.184000", "164832.187000", "164832.190000", "164832.192000", "164832.199000", "164832.202000", "164832.205000", "164832.208000", "164832.211000", "164832.214000", "164832.217000", "164832.220000", "164832.223000", "164832.225000", "164832.228000", "164832.231000", "164832.234000", "164832.237000", "164832.240000", "164832.243000", "164841.749000", "164841.753000", "164841.757000", "164841.760000", "164841.764000", "164841.767000", "164841.770000", "164841.773000"],
      "InstanceCreationTime": ["164112.157000", "164112.164000", "164112.167000", "164112.173000", "164112.176000", "164112.186000", "164112.188000", "164112.191000", "164112.194000", "164112.197000", "164112.200000", "164112.202000", "164112.205000", "164112.208000", "164112.212000", "164112.215000", "164112.218000", "164112.221000", "164112.224000", "164112.226000", "164112.229000", "164152.153000", "164152.156000", "164152.161000", "164152.167000", "164152.171000", "164152.174000", "164152.177000", "164152.180000", "164152.182000", "164152.185000", "164152.188000", "164152.191000", "164152.194000", "164152.197000", "164152.199000", "164152.202000", "164152.205000", "164152.208000", "164152.211000", "164152.214000", "164152.216000", "164152.219000", "164152.222000", "164152.229000", "164152.232000", "164152.234000", "164152.237000", "164152.240000", "164152.243000", "164152.246000", "164152.249000", "164232.153000", "164232.156000", "164232.159000", "164232.162000", "164232.165000", "164232.167000", "164232.170000", "164232.173000", "164232.176000", "164232.179000", "164232.182000", "164232.184000", "164232.187000", "164232.190000", "164232.193000", "164232.196000", "164232.199000", "164232.202000", "164232.204000", "164232.207000", "164232.210000", "164232.213000", "164232.216000", "164232.219000", "164232.233000", "164232.236000", "164232.239000", "164232.242000", "164232.245000", "164232.248000", "164232.251000", "164232.253000", "164312.152000", "164312.155000", "164312.158000", "164312.161000", "164312.163000", "164312.166000", "164312.169000", "164312.172000", "164312.175000", "164312.178000", "164312.181000", "164312.183000", "164312.186000", "164312.189000", "164312.192000", "164312.195000", "164312.198000", "164312.201000", "164312.204000", "164312.206000", "164312.209000", "164312.212000", "164312.215000", "164312.218000", "164312.221000", "164312.224000", "164312.227000", "164312.229000", "164312.232000", "164312.235000", "164312.238000", "164352.152000", "164352.155000", "164352.158000", "164352.161000", "164352.164000", "164352.167000", "164352.169000", "164352.172000", "164352.175000", "164352.178000", "164352.181000", "164352.184000", "164352.189000", "164352.191000", "164352.194000", "164352.197000", "164352.200000", "164352.203000", "164352.206000", "164352.208000", "164352.211000", "164352.214000", "164352.217000", "164352.220000", "164352.223000", "164352.226000", "164352.228000", "164352.231000", "164352.234000", "164352.237000", "164352.240000", "164432.153000", "164432.156000", "164432.159000", "164432.162000", "164432.165000", "164432.168000", "164432.171000", "164432.174000", "164432.176000", "164432.179000", "164432.182000", "164432.185000", "164432.188000", "164432.191000", "164432.194000", "164432.197000", "164432.200000", "164432.204000", "164432.207000", "164432.209000", "164432.212000", "164432.215000", "164432.218000", "164432.221000", "164432.224000", "164432.227000", "164432.230000", "164432.233000", "164432.236000", "164432.238000", "164432.241000", "164512.152000", "164512.155000", "164512.158000", "164512.168000", "164512.171000", "164512.174000", "164512.177000", "164512.185000", "164512.188000", "164512.191000", "164512.194000", "164512.197000", "164512.199000", "164512.202000", "164512.205000", "164512.208000", "164512.211000", "164512.214000", "164512.217000", "164512.220000", "164512.223000", "164512.225000", "164512.228000", "164512.231000", "164512.234000", "164512.237000", "164512.240000", "164512.243000", "164512.246000", "164512.248000", "164512.251000", "164512.254000", "164552.152000", "164552.155000", "164552.178000", "164552.195000", "164552.198000", "164552.201000", "164552.204000", "164552.207000", "164552.210000", "164552.213000", "164552.216000", "164552.218000", "164552.221000", "164552.224000", "164552.227000", "164552.230000", "164552.233000", "164552.236000", "164552.239000", "164552.241000", "164552.244000", "164552.247000", "164552.250000", "164552.253000", "164552.256000", "164552.259000", "164552.262000", "164552.265000", "164552.267000", "164552.270000", "164552.273000", "164632.153000", "164632.156000", "164632.182000", "164632.185000", "164632.188000", "164632.191000", "164632.194000", "164632.197000", "164632.200000", "164632.203000", "164632.205000", "164632.208000", "164632.211000", "164632.214000", "164632.217000", "164632.220000", "164632.223000", "164632.226000", "164632.228000", "164632.231000", "164632.234000", "164632.237000", "164632.240000", "164632.243000", "164632.246000", "164632.249000", "164632.251000", "164632.254000", "164632.269000", "164632.272000", "164632.274000", "164712.153000", "164712.156000", "164712.317000", "164712.319000", "164712.322000", "164712.325000", "164712.328000", "164712.331000", "164712.334000", "164712.337000", "164712.340000", "164712.343000", "164712.346000", "164712.348000", "164712.351000", "164712.354000", "164712.357000", "164712.360000", "164712.363000", "164712.366000", "164712.368000", "164712.371000", "164712.374000", "164712.377000", "164712.380000", "164712.383000", "164712.385000", "164712.388000", "164712.391000", "164712.394000", "164712.397000", "164752.152000", "164752.155000", "164752.158000", "164752.161000", "164752.164000", "164752.167000", "164752.170000", "164752.173000", "164752.176000", "164752.178000", "164752.181000", "164752.184000", "164752.187000", "164752.190000", "164752.193000", "164752.196000", "164752.199000", "164752.202000", "164752.204000", "164752.207000", "164752.210000", "164752.213000", "164752.216000", "164752.219000", "164752.222000", "164752.225000", "164752.228000", "164752.230000", "164752.233000", "164752.236000", "164752.239000", "164752.242000", "164832.152000", "164832.155000", "164832.158000", "164832.161000", "164832.164000", "164832.167000", "164832.169000", "164832.172000", "164832.175000", "164832.178000", "164832.181000", "164832.184000", "164832.187000", "164832.190000", "164832.192000", "164832.199000", "164832.202000", "164832.205000", "164832.208000", "164832.211000", "164832.214000", "164832.217000", "164832.220000", "164832.223000", "164832.225000", "164832.228000", "164832.231000", "164832.234000", "164832.237000", "164832.240000", "164832.243000", "164841.749000", "164841.753000", "164841.757000", "164841.760000", "164841.764000", "164841.767000", "164841.770000", "164841.773000"],
      "InstanceNumber": [1, 2, 3, 4, 5, 6, 7, 8, 9, 10, 11, 12, 13, 14, 15, 16, 17, 18, 19, 20, 21, 22, 23, 24, 25, 26, 27, 28, 29, 30, 31, 32, 33, 34, 35, 36, 37, 38, 39, 40, 41, 42, 43, 44, 45, 46, 47, 48, 49, 50, 51, 52, 53, 54, 55, 56, 57, 58, 59, 60, 61, 62, 63, 64, 65, 66, 67, 68, 69, 70, 71, 72, 73, 74, 75, 76, 77, 78, 79, 80, 81, 82, 83, 84, 85, 86, 87, 88, 89, 90, 91, 92, 93, 94, 95, 96, 97, 98, 99, 100, 101, 102, 103, 104, 105, 106, 107, 108, 109, 110, 111, 112, 113, 114, 115, 116, 117, 118, 119, 120, 121, 122, 123, 124, 125, 126, 127, 128, 129, 130, 131, 132, 133, 134, 135, 136, 137, 138, 139, 140, 141, 142, 143, 144, 145, 146, 147, 148, 149, 150, 151, 152, 153, 154, 155, 156, 157, 158, 159, 160, 161, 162, 163, 164, 165, 166, 167, 168, 169, 170, 171, 172, 173, 174, 175, 176, 177, 178, 179, 180, 181, 182, 183, 184, 185, 186, 187, 188, 189, 190, 191, 192, 193, 194, 195, 196, 197, 198, 199, 200, 201, 202, 203, 204, 205, 206, 207, 208, 209, 210, 211, 212, 213, 214, 215, 216, 217, 218, 219, 220, 221, 222, 223, 224, 225, 226, 227, 228, 229, 230, 231, 232, 233, 234, 235, 236, 237, 238, 239, 240, 241, 242, 243, 244, 245, 246, 247, 248, 249, 250, 251, 252, 253, 254, 255, 256, 257, 258, 259, 260, 261, 262, 263, 264, 265, 266, 267, 268, 269, 270, 271, 272, 273, 274, 275, 276, 277, 278, 279, 280, 281, 282, 283, 284, 285, 286, 287, 288, 289, 290, 291, 292, 293, 294, 295, 296, 297, 298, 299, 300, 301, 302, 303, 304, 305, 306, 307, 308, 309, 310, 311, 312, 313, 314, 315, 316, 317, 318, 319, 320, 321, 322, 323, 324, 325, 326, 327, 328, 329, 330, 331, 332, 333, 334, 335, 336, 337, 338, 339, 340, 341, 342, 343, 344, 345, 346, 347, 348, 349, 350, 351, 352, 353, 354, 355, 356, 357, 358, 359, 360, 361, 362, 363, 364, 365, 366, 367, 368, 369, 370, 371, 372, 373],
