{
  "AcquisitionMatrixPE": 108,
  "AcquisitionNumber": 1,
  "AcquisitionTime": "16:49:57.807500",
  "BandwidthPerPixelPhaseEncode": 15.964,
  "BaseResolution": 108,
  "BodyPartExamined": "BRAIN",
  "ConsistencyInfo": "N4_VE11C_LATEST_20160120",
  "ConversionSoftware": "dcm2niix",
  "ConversionSoftwareVersion": "v1.0.20180622 GCC6.3.0",
  "DerivedVendorReportedEchoSpacing": 0.000580009,
  "DeviceSerialNumber": "66054",
  "DwellTime": 2.1e-06,
  "EchoTime": 0.031,
  "EchoTrainLength": 95,
  "EffectiveEchoSpacing": 0.000580009,
  "FlipAngle": 64,
  "ImageOrientationPatientDICOM": [0.999288, -0.00803646, 0.0368542, 0.0156981, 0.977013, -0.2126],
  "ImageType": [
    "ORIGINAL",
    "PRIMARY",
    "M",
    "ND",
    "MOSAIC"
],
  "InPlanePhaseEncodingDirectionDICOM": "COL",
  "InstitutionAddress": "Chemin_des_Mines_9_Geneve_District_CH_1211",
  "InstitutionName": "Fondation_Campus_Biotech_Geneva",
  "InstitutionalDepartmentName": "Department",
  "MRAcquisitionType": "2D",
  "MagneticFieldStrength": 3,
  "Manufacturer": "Siemens",
  "ManufacturersModelName": "Prisma",
  "Modality": "MR",
  "MultibandAccelerationFactor": 4,
  "PartialFourier": 0.875,
  "PatientPosition": "HFS",
  "PercentPhaseFOV": 100,
  "PhaseEncodingDirection": "j-",
  "PhaseEncodingSteps": 95,
  "PhaseResolution": 1,
  "PixelBandwidth": 2205,
  "ProcedureStepDescription": "J.DRM_Michael",
  "ProtocolName": "Run6_bold_s4_TR1.28",
  "PulseSequenceDetails": "%SiemensSeq%_ep2d_bold",
  "ReceiveCoilActiveElements": "HC1-7;NC1,2",
  "ReceiveCoilName": "HeadNeck_64",
  "ReconMatrixPE": 108,
  "RepetitionTime": 1.28,
  "SAR": 0.0706596,
  "ScanOptions": "PFP_FS",
  "ScanningSequence": "EP",
  "SequenceName": "_epfid2d1_108",
  "SequenceVariant": "SK",
  "SeriesDescription": "Run6_bold_s4_TR1.28",
  "SeriesNumber": 14,
  "ShimSetting": [-1254, -11675, 6439, 505, 150, -72, 155, 47],
  "SliceThickness": 2,
  "SliceTiming": [0.9425, 0, 0.6275, 0.0775, 0.7075, 0.1575, 0.785, 0.235, 0.865, 0.3925, 1.0225, 0.47, 1.1, 0.55, 1.18, 0.315, 0.9425, 0, 0.6275, 0.0775, 0.7075, 0.1575, 0.785, 0.235, 0.865, 0.3925, 1.0225, 0.47, 1.1, 0.55, 1.18, 0.315, 0.9425, 0, 0.6275, 0.0775, 0.7075, 0.1575, 0.785, 0.235, 0.865, 0.3925, 1.0225, 0.47, 1.1, 0.55, 1.18, 0.315, 0.9425, 0, 0.6275, 0.0775, 0.7075, 0.1575, 0.785, 0.235, 0.865, 0.3925, 1.0225, 0.47, 1.1, 0.55, 1.18, 0.315],
  "SoftwareVersions": "syngo_MR_E11",
  "SpacingBetweenSlices": 2,
  "StationName": "AWP66054",
  "TaskName": "main",
  "TotalReadoutTime": 0.0620609,
  "TxRefAmp": 264.591,
  "dcmmeta_affine": [
    [-1.9893240928649902, 0.03125087916851044, 0.06859704852104187, 105.4787826538086],
    [0.01599849946796894, 1.9449799060821533, -0.42605501413345337, -78.81404876708984],
    [0.07336723804473877, 0.42323198914527893, 1.952888011932373, -70.1017074584961],
    [0.0, 0.0, 0.0, 1.0]
],
  "dcmmeta_reorient_transform": [
    [0.0, -1.0, 0.0, 107.0],
    [1.0, 0.0, 0.0, 0.0],
    [0.0, 0.0, 1.0, 0.0],
    [0.0, 0.0, 0.0, 1.0]
],
  "dcmmeta_shape": [108, 108, 64, 373],
  "dcmmeta_slice_dim": 2,
  "dcmmeta_version": 0.6,
  "global": {
    "const": {
      "AccessionNumber": "",
      "AcquisitionMatrix": [108, 0, 0, 108],
      "AngioFlag": "N",
      "BitsAllocated": 16,
      "BitsStored": 12,
      "BodyPartExamined": "BRAIN",
      "Columns": 864,
      "EchoNumbers": 1,
      "EchoTime": 31.0,
      "EchoTrainLength": 95,
      "FlipAngle": 64.0,
      "HighBit": 11,
      "ImageOrientationPatient": [0.9992883369591, -0.0080364554066, 0.03685423994623, 0.01569811513285, 0.97701315330204, -0.2126002527188],
      "ImagePositionPatient": [-872.59994706642, -858.45378311148, 107.43298983428],
      "ImageType": [
        "ORIGINAL",
        "PRIMARY",
        "M",
        "ND",
        "MOSAIC"
],
      "ImagedNucleus": "1H",
      "ImagingFrequency": 123.257386,
      "InPlanePhaseEncodingDirection": "COL",
      "MRAcquisitionType": "2D",
      "MagneticFieldStrength": 3.0,
      "Manufacturer": "SIEMENS",
      "ManufacturerModelName": "Prisma",
      "Modality": "MR",
      "NumberOfAverages": 1.0,
      "NumberOfPhaseEncodingSteps": 95,
      "PercentPhaseFieldOfView": 100.0,
      "PercentSampling": 100.0,
      "PerformedProcedureStepStartTime": "151123.816000",
      "PhotometricInterpretation": "MONOCHROME2",
      "PixelBandwidth": 2205.0,
      "PixelRepresentation": 0,
      "PixelSpacing": [1.990740776062, 1.990740776062],
      "PositionReferenceIndicator": "",
      "ProtocolName": "Run6_bold_s4_TR1.28",
      "RepetitionTime": 1280.0,
      "Rows": 864,
      "SAR": 0.07065962254594,
      "SamplesPerPixel": 1,
      "ScanOptions": [
        "PFP",
        "FS"
],
      "ScanningSequence": "EP",
      "SequenceName": "*epfid2d1_108",
      "SequenceVariant": "SK",
      "SeriesDescription": "Run6_bold_s4_TR1.28",
      "SeriesNumber": 14,
      "SeriesTime": "165032.236000",
      "SliceLocation": -48.043069182852,
      "SliceThickness": 2.0,
      "SmallestImagePixelValue": 0,
      "SoftwareVersions": "syngo MR E11",
      "SpacingBetweenSlices": 2.0000000498554,
      "SpecificCharacterSet": "ISO_IR 100",
      "StudyID": "1",
      "StudyTime": "151123.763000",
      "TransmitCoilName": "Body",
      "VariableFlipAngleFlag": "N",
      "WindowCenterWidthExplanation": "Algo1",
      "dBdt": 0.0},
    "slices": {}
  },
  "time": {
    "samples": {
      "AcquisitionNumber": [1, 2, 3, 4, 5, 6, 7, 8, 9, 10, 11, 12, 13, 14, 15, 16, 17, 18, 19, 20, 21, 22, 23, 24, 25, 26, 27, 28, 29, 30, 31, 32, 33, 34, 35, 36, 37, 38, 39, 40, 41, 42, 43, 44, 45, 46, 47, 48, 49, 50, 51, 52, 53, 54, 55, 56, 57, 58, 59, 60, 61, 62, 63, 64, 65, 66, 67, 68, 69, 70, 71, 72, 73, 74, 75, 76, 77, 78, 79, 80, 81, 82, 83, 84, 85, 86, 87, 88, 89, 90, 91, 92, 93, 94, 95, 96, 97, 98, 99, 100, 101, 102, 103, 104, 105, 106, 107, 108, 109, 110, 111, 112, 113, 114, 115, 116, 117, 118, 119, 120, 121, 122, 123, 124, 125, 126, 127, 128, 129, 130, 131, 132, 133, 134, 135, 136, 137, 138, 139, 140, 141, 142, 143, 144, 145, 146, 147, 148, 149, 150, 151, 152, 153, 154, 155, 156, 157, 158, 159, 160, 161, 162, 163, 164, 165, 166, 167, 168, 169, 170, 171, 172, 173, 174, 175, 176, 177, 178, 179, 180, 181, 182, 183, 184, 185, 186, 187, 188, 189, 190, 191, 192, 193, 194, 195, 196, 197, 198, 199, 200, 201, 202, 203, 204, 205, 206, 207, 208, 209, 210, 211, 212, 213, 214, 215, 216, 217, 218, 219, 220, 221, 222, 223, 224, 225, 226, 227, 228, 229, 230, 231, 232, 233, 234, 235, 236, 237, 238, 239, 240, 241, 242, 243, 244, 245, 246, 247, 248, 249, 250, 251, 252, 253, 254, 255, 256, 257, 258, 259, 260, 261, 262, 263, 264, 265, 266, 267, 268, 269, 270, 271, 272, 273, 274, 275, 276, 277, 278, 279, 280, 281, 282, 283, 284, 285, 286, 287, 288, 289, 290, 291, 292, 293, 294, 295, 296, 297, 298, 299, 300, 301, 302, 303, 304, 305, 306, 307, 308, 309, 310, 311, 312, 313, 314, 315, 316, 317, 318, 319, 320, 321, 322, 323, 324, 325, 326, 327, 328, 329, 330, 331, 332, 333, 334, 335, 336, 337, 338, 339, 340, 341, 342, 343, 344, 345, 346, 347, 348, 349, 350, 351, 352, 353, 354, 355, 356, 357, 358, 359, 360, 361, 362, 363, 364, 365, 366, 367, 368, 369, 370, 371, 372, 373],
      "AcquisitionTime": ["164957.807500", "164959.087500", "165000.367500", "165001.647500", "165002.927500", "165004.207500", "165005.487500", "165006.767500", "165008.047500", "165009.327500", "165010.607500", "165011.887500", "165013.167500", "165014.447500", "165015.727500", "165017.007500", "165018.287500", "165019.567500", "165020.847500", "165022.127500", "165023.407500", "165024.687500", "165025.967500", "165027.247500", "165028.527500", "165029.807500", "165031.087500", "165032.367500", "165033.647500", "165034.927500", "165036.207500", "165037.487500", "165038.767500", "165040.047500", "165041.327500", "165042.607500", "165043.887500", "165045.167500", "165046.447500", "165047.727500", "165049.007500", "165050.287500", "165051.567500", "165052.847500", "165054.127500", "165055.407500", "165056.687500", "165057.967500", "165059.247500", "165100.527500", "165101.807500", "165103.087500", "165104.367500", "165105.647500", "165106.927500", "165108.207500", "165109.487500", "165110.767500", "165112.047500", "165113.327500", "165114.607500", "165115.887500", "165117.167500", "165118.447500", "165119.727500", "165121.007500", "165122.287500", "165123.567500", "165124.847500", "165126.127500", "165127.407500", "165128.687500", "165129.967500", "165131.247500", "165132.527500", "165133.807500", "165135.087500", "165136.367500", "165137.647500", "165138.927500", "165140.207500", "165141.487500", "165142.767500", "165144.047500", "165145.327500", "165146.607500", "165147.887500", "165149.167500", "165150.447500", "165151.727500", "165153.007500", "165154.287500", "165155.567500", "165156.847500", "165158.127500", "165159.407500", "165200.687500", "165201.967500", "165203.247500", "165204.527500", "165205.807500", "165207.087500", "165208.367500", "165209.647500", "165210.927500", "165212.207500", "165213.487500", "165214.767500", "165216.047500", "165217.327500", "165218.607500", "165219.887500", "165221.167500", "165222.447500", "165223.727500", "165225.007500", "165226.287500", "165227.567500", "165228.847500", "165230.127500", "165231.407500", "165232.687500", "165233.967500", "165235.247500", "165236.527500", "165237.807500", "165239.087500", "165240.367500", "165241.647500", "165242.927500", "165244.207500", "165245.487500", "165246.767500", "165248.047500", "165249.327500", "165250.607500", "165251.887500", "165253.167500", "165254.447500", "165255.727500", "165257.007500", "165258.287500", "165259.567500", "165300.847500", "165302.127500", "165303.407500", "165304.687500", "165305.967500", "165307.247500", "165308.527500", "165309.807500", "165311.087500", "165312.367500", "165313.647500", "165314.927500", "165316.207500", "165317.487500", "165318.767500", "165320.047500", "165321.327500", "165322.607500", "165323.887500", "165325.167500", "165326.447500", "165327.727500", "165329.007500", "165330.287500", "165331.567500", "165332.847500", "165334.127500", "165335.407500", "165336.687500", "165337.967500", "165339.247500", "165340.527500", "165341.807500", "165343.087500", "165344.367500", "165345.647500", "165346.927500", "165348.207500", "165349.487500", "165350.767500", "165352.047500", "165353.327500", "165354.607500", "165355.887500", "165357.167500", "165358.447500", "165359.727500", "165401.007500", "165402.287500", "165403.567500", "165404.847500", "165406.127500", "165407.407500", "165408.687500", "165409.967500", "165411.247500", "165412.527500", "165413.807500", "165415.087500", "165416.367500", "165417.647500", "165418.927500", "165420.207500", "165421.487500", "165422.767500", "165424.047500", "165425.327500", "165426.607500", "165427.887500", "165429.167500", "165430.447500", "165431.727500", "165433.007500", "165434.287500", "165435.567500", "165436.847500", "165438.127500", "165439.407500", "165440.687500", "165441.967500", "165443.247500", "165444.527500", "165445.807500", "165447.087500", "165448.367500", "165449.647500", "165450.927500", "165452.207500", "165453.487500", "165454.767500", "165456.047500", "165457.327500", "165458.607500", "165459.887500", "165501.167500", "165502.447500", "165503.727500", "165505.007500", "165506.287500", "165507.567500", "165508.847500", "165510.127500", "165511.407500", "165512.687500", "165513.967500", "165515.247500", "165516.527500", "165517.807500", "165519.087500", "165520.367500", "165521.647500", "165522.927500", "165524.207500", "165525.487500", "165526.767500", "165528.047500", "165529.327500", "165530.607500", "165531.887500", "165533.167500", "165534.447500", "165535.727500", "165537.007500", "165538.287500", "165539.567500", "165540.847500", "165542.127500", "165543.407500", "165544.687500", "165545.967500", "165547.247500", "165548.527500", "165549.807500", "165551.087500", "165552.367500", "165553.647500", "165554.927500", "165556.207500", "165557.487500", "165558.767500", "165600.047500", "165601.327500", "165602.607500", "165603.887500", "165605.167500", "165606.447500", "165607.727500", "165609.007500", "165610.287500", "165611.567500", "165612.847500", "165614.127500", "165615.407500", "165616.687500", "165617.967500", "165619.247500", "165620.527500", "165621.807500", "165623.087500", "165624.367500", "165625.647500", "165626.927500", "165628.207500", "165629.487500", "165630.767500", "165632.047500", "165633.327500", "165634.607500", "165635.887500", "165637.167500", "165638.447500", "165639.727500", "165641.007500", "165642.287500", "165643.567500", "165644.847500", "165646.127500", "165647.407500", "165648.687500", "165649.967500", "165651.247500", "165652.527500", "165653.807500", "165655.087500", "165656.367500", "165657.647500", "165658.927500", "165700.207500", "165701.487500", "165702.767500", "165704.047500", "165705.327500", "165706.607500", "165707.887500", "165709.167500", "165710.447500", "165711.727500", "165713.007500", "165714.287500", "165715.567500", "165716.847500", "165718.127500", "165719.407500", "165720.687500", "165721.967500", "165723.247500", "165724.527500", "165725.807500", "165727.087500", "165728.367500", "165729.647500", "165730.927500", "165732.207500", "165733.487500", "165734.767500", "165736.047500", "165737.327500", "165738.607500", "165739.887500", "165741.167500", "165742.447500", "165743.727500", "165745.007500", "165746.287500", "165747.567500", "165748.847500", "165750.127500", "165751.407500", "165752.687500", "165753.967500"],
      "ContentTime": ["165032.240000", "165032.243000", "165032.246000", "165032.249000", "165032.252000", "165032.255000", "165032.261000", "165032.264000", "165032.267000", "165032.269000", "165032.272000", "165032.275000", "165032.278000", "165032.284000", "165032.287000", "165032.290000", "165032.293000", "165032.295000", "165032.298000", "165032.301000", "165032.304000", "165032.307000", "165032.310000", "165032.313000", "165032.316000", "165032.319000", "165032.322000", "165112.223000", "165112.226000", "165112.229000", "165112.231000", "165112.241000", "165112.244000", "165112.247000", "165112.249000", "165112.252000", "165112.255000", "165112.258000", "165112.261000", "165112.264000", "165112.267000", "165112.269000", "165112.276000", "165112.279000", "165112.282000", "165112.285000", "165112.287000", "165112.290000", "165112.293000", "165112.296000", "165112.299000", "165112.302000", "165112.305000", "165112.308000", "165112.311000", "165112.313000", "165112.316000", "165112.319000", "165152.223000", "165152.226000", "165152.229000", "165152.232000", "165152.234000", "165152.237000", "165152.240000", "165152.243000", "165152.246000", "165152.249000", "165152.252000", "165152.255000", "165152.258000", "165152.260000", "165152.263000", "165152.266000", "165152.269000", "165152.272000", "165152.281000", "165152.283000", "165152.286000", "165152.289000", "165152.292000", "165152.295000", "165152.298000", "165152.301000", "165152.303000", "165152.306000", "165152.309000", "165152.312000", "165152.315000", "165232.222000", "165232.225000", "165232.228000", "165232.231000", "165232.234000", "165232.237000", "165232.240000", "165232.242000", "165232.245000", "165232.248000", "165232.251000", "165232.254000", "165232.257000", "165232.260000", "165232.262000", "165232.265000", "165232.268000", "165232.271000", "165232.274000", "165232.277000", "165232.280000", "165232.282000", "165232.285000", "165232.288000", "165232.291000", "165232.304000", "165232.307000", "165232.310000", "165232.312000", "165232.315000", "165232.318000", "165312.223000", "165312.226000", "165312.229000", "165312.231000", "165312.234000", "165312.237000", "165312.240000", "165312.243000", "165312.246000", "165312.249000", "165312.252000", "165312.254000", "165312.257000", "165312.260000", "165312.263000", "165312.266000", "165312.269000", "165312.272000", "165312.274000", "165312.277000", "165312.280000", "165312.283000", "165312.286000", "165312.289000", "165312.292000", "165312.294000", "165312.297000", "165312.300000", "165312.303000", "165312.306000", "165312.309000", "165312.312000", "165352.223000", "165352.226000", "165352.229000", "165352.232000", "165352.234000", "165352.237000", "165352.240000", "165352.243000", "165352.246000", "165352.249000", "165352.251000", "165352.254000", "165352.257000", "165352.260000", "165352.263000", "165352.266000", "165352.269000", "165352.272000", "165352.274000", "165352.277000", "165352.280000", "165352.283000", "165352.286000", "165352.289000", "165352.292000", "165352.295000", "165352.298000", "165352.301000", "165352.303000", "165352.306000", "165352.309000", "165432.222000", "165432.225000", "165432.228000", "165432.230000", "165432.233000", "165432.236000", "165432.239000", "165432.242000", "165432.258000", "165432.261000", "165432.264000", "165432.267000", "165432.270000", "165432.272000", "165432.275000", "165432.278000", "165432.281000", "165432.284000", "165432.287000", "165432.289000", "165432.292000", "165432.295000", "165432.298000", "165432.301000", "165432.304000", "165432.307000", "165432.310000", "165432.312000", "165432.315000", "165432.318000", "165432.321000", "165512.222000", "165512.225000", "165512.228000", "165512.231000", "165512.233000", "165512.236000", "165512.239000", "165512.242000", "165512.245000", "165512.248000", "165512.251000", "165512.254000", "165512.256000", "165512.259000", "165512.262000", "165512.265000", "165512.268000", "165512.271000", "165512.274000", "165512.277000", "165512.279000", "165512.282000", "165512.285000", "165512.288000", "165512.291000", "165512.294000", "165512.296000", "165512.299000", "165512.302000", "165512.305000", "165512.308000", "165552.223000", "165552.226000", "165552.229000", "165552.232000", "165552.235000", "165552.238000", "165552.241000", "165552.243000", "165552.246000", "165552.249000", "165552.252000", "165552.255000", "165552.258000", "165552.261000", "165552.264000", "165552.267000", "165552.269000", "165552.272000", "165552.275000", "165552.278000", "165552.281000", "165552.284000", "165552.286000", "165552.289000", "165552.292000", "165552.295000", "165552.298000", "165552.301000", "165552.304000", "165552.307000", "165552.310000", "165552.312000", "165632.223000", "165632.226000", "165632.229000", "165632.232000", "165632.235000", "165632.238000", "165632.241000", "165632.243000", "165632.246000", "165632.249000", "165632.252000", "165632.255000", "165632.258000", "165632.261000", "165632.263000", "165632.266000", "165632.269000", "165632.272000", "165632.275000", "165632.278000", "165632.281000", "165632.284000", "165632.286000", "165632.289000", "165632.293000", "165632.296000", "165632.298000", "165632.301000", "165632.304000", "165632.307000", "165632.310000", "165712.222000", "165712.225000", "165712.228000", "165712.231000", "165712.234000", "165712.237000", "165712.240000", "165712.243000", "165712.245000", "165712.248000", "165712.252000", "165712.254000", "165712.257000", "165712.260000", "165712.263000", "165712.266000", "165712.269000", "165712.272000", "165712.274000", "165712.277000", "165712.280000", "165712.283000", "165712.286000", "165712.289000", "165712.292000", "165712.295000", "165712.297000", "165712.300000", "165712.303000", "165712.306000", "165712.309000", "165752.223000", "165752.226000", "165752.229000", "165752.232000", "165752.235000", "165752.237000", "165752.240000", "165752.243000", "165752.246000", "165752.249000", "165752.252000", "165752.255000", "165752.258000", "165752.260000", "165752.263000", "165752.266000", "165752.269000", "165752.272000", "165752.275000", "165752.278000", "165752.288000", "165752.291000", "165752.294000", "165752.297000", "165752.300000", "165752.303000", "165752.306000", "165752.308000", "165752.311000", "165752.314000", "165752.317000", "165754.916000", "165754.919000", "165754.922000"],
      "InstanceCreationTime": ["165032.240000", "165032.243000", "165032.246000", "165032.249000", "165032.252000", "165032.255000", "165032.261000", "165032.264000", "165032.267000", "165032.269000", "165032.272000", "165032.275000", "165032.278000", "165032.284000", "165032.287000", "165032.290000", "165032.293000", "165032.295000", "165032.298000", "165032.301000", "165032.304000", "165032.307000", "165032.310000", "165032.313000", "165032.316000", "165032.319000", "165032.322000", "165112.223000", "165112.226000", "165112.229000", "165112.231000", "165112.241000", "165112.244000", "165112.247000", "165112.249000", "165112.252000", "165112.255000", "165112.258000", "165112.261000", "165112.264000", "165112.267000", "165112.269000", "165112.276000", "165112.279000", "165112.282000", "165112.285000", "165112.287000", "165112.290000", "165112.293000", "165112.296000", "165112.299000", "165112.302000", "165112.305000", "165112.308000", "165112.311000", "165112.313000", "165112.316000", "165112.319000", "165152.223000", "165152.226000", "165152.229000", "165152.232000", "165152.234000", "165152.237000", "165152.240000", "165152.243000", "165152.246000", "165152.249000", "165152.252000", "165152.255000", "165152.258000", "165152.260000", "165152.263000", "165152.266000", "165152.269000", "165152.272000", "165152.281000", "165152.283000", "165152.286000", "165152.289000", "165152.292000", "165152.295000", "165152.298000", "165152.301000", "165152.303000", "165152.306000", "165152.309000", "165152.312000", "165152.315000", "165232.222000", "165232.225000", "165232.228000", "165232.231000", "165232.234000", "165232.237000", "165232.240000", "165232.242000", "165232.245000", "165232.248000", "165232.251000", "165232.254000", "165232.257000", "165232.260000", "165232.262000", "165232.265000", "165232.268000", "165232.271000", "165232.274000", "165232.277000", "165232.280000", "165232.282000", "165232.285000", "165232.288000", "165232.291000", "165232.304000", "165232.307000", "165232.310000", "165232.312000", "165232.315000", "165232.318000", "165312.223000", "165312.226000", "165312.229000", "165312.231000", "165312.234000", "165312.237000", "165312.240000", "165312.243000", "165312.246000", "165312.249000", "165312.252000", "165312.254000", "165312.257000", "165312.260000", "165312.263000", "165312.266000", "165312.269000", "165312.272000", "165312.274000", "165312.277000", "165312.280000", "165312.283000", "165312.286000", "165312.289000", "165312.292000", "165312.294000", "165312.297000", "165312.300000", "165312.303000", "165312.306000", "165312.309000", "165312.312000", "165352.223000", "165352.226000", "165352.229000", "165352.232000", "165352.234000", "165352.237000", "165352.240000", "165352.243000", "165352.246000", "165352.249000", "165352.251000", "165352.254000", "165352.257000", "165352.260000", "165352.263000", "165352.266000", "165352.269000", "165352.272000", "165352.274000", "165352.277000", "165352.280000", "165352.283000", "165352.286000", "165352.289000", "165352.292000", "165352.295000", "165352.298000", "165352.301000", "165352.303000", "165352.306000", "165352.309000", "165432.222000", "165432.225000", "165432.228000", "165432.230000", "165432.233000", "165432.236000", "165432.239000", "165432.242000", "165432.258000", "165432.261000", "165432.264000", "165432.267000", "165432.270000", "165432.272000", "165432.275000", "165432.278000", "165432.281000", "165432.284000", "165432.287000", "165432.289000", "165432.292000", "165432.295000", "165432.298000", "165432.301000", "165432.304000", "165432.307000", "165432.310000", "165432.312000", "165432.315000", "165432.318000", "165432.321000", "165512.222000", "165512.225000", "165512.228000", "165512.231000", "165512.233000", "165512.236000", "165512.239000", "165512.242000", "165512.245000", "165512.248000", "165512.251000", "165512.254000", "165512.256000", "165512.259000", "165512.262000", "165512.265000", "165512.268000", "165512.271000", "165512.274000", "165512.277000", "165512.279000", "165512.282000", "165512.285000", "165512.288000", "165512.291000", "165512.294000", "165512.296000", "165512.299000", "165512.302000", "165512.305000", "165512.308000", "165552.223000", "165552.226000", "165552.229000", "165552.232000", "165552.235000", "165552.238000", "165552.241000", "165552.243000", "165552.246000", "165552.249000", "165552.252000", "165552.255000", "165552.258000", "165552.261000", "165552.264000", "165552.267000", "165552.269000", "165552.272000", "165552.275000", "165552.278000", "165552.281000", "165552.284000", "165552.286000", "165552.289000", "165552.292000", "165552.295000", "165552.298000", "165552.301000", "165552.304000", "165552.307000", "165552.310000", "165552.312000", "165632.223000", "165632.226000", "165632.229000", "165632.232000", "165632.235000", "165632.238000", "165632.241000", "165632.243000", "165632.246000", "165632.249000", "165632.252000", "165632.255000", "165632.258000", "165632.261000", "165632.263000", "165632.266000", "165632.269000", "165632.272000", "165632.275000", "165632.278000", "165632.281000", "165632.284000", "165632.286000", "165632.289000", "165632.293000", "165632.296000", "165632.298000", "165632.301000", "165632.304000", "165632.307000", "165632.310000", "165712.222000", "165712.225000", "165712.228000", "165712.231000", "165712.234000", "165712.237000", "165712.240000", "165712.243000", "165712.245000", "165712.248000", "165712.252000", "165712.254000", "165712.257000", "165712.260000", "165712.263000", "165712.266000", "165712.269000", "165712.272000", "165712.274000", "165712.277000", "165712.280000", "165712.283000", "165712.286000", "165712.289000", "165712.292000", "165712.295000", "165712.297000", "165712.300000", "165712.303000", "165712.306000", "165712.309000", "165752.223000", "165752.226000", "165752.229000", "165752.232000", "165752.235000", "165752.237000", "165752.240000", "165752.243000", "165752.246000", "165752.249000", "165752.252000", "165752.255000", "165752.258000", "165752.260000", "165752.263000", "165752.266000", "165752.269000", "165752.272000", "165752.275000", "165752.278000", "165752.288000", "165752.291000", "165752.294000", "165752.297000", "165752.300000", "165752.303000", "165752.306000", "165752.308000", "165752.311000", "165752.314000", "165752.317000", "165754.916000", "165754.919000", "165754.922000"],
      "InstanceNumber": [1, 2, 3, 4, 5, 6, 7, 8, 9, 10, 11, 12, 13, 14, 15, 16, 17, 18, 19, 20, 21, 22, 23, 24, 25, 26, 27, 28, 29, 30, 31, 32, 33, 34, 35, 36, 37, 38, 39, 40, 41, 42, 43, 44, 45, 46, 47, 48, 49, 50, 51, 52, 53, 54, 55, 56, 57, 58, 59, 60, 61, 62, 63, 64, 65, 66, 67, 68, 69, 70, 71, 72, 73, 74, 75, 76, 77, 78, 79, 80, 81, 82, 83, 84, 85, 86, 87, 88, 89, 90, 91, 92, 93, 94, 95, 96, 97, 98, 99, 100, 101, 102, 103, 104, 105, 106, 107, 108, 109, 110, 111, 112, 113, 114, 115, 116, 117, 118, 119, 120, 121, 122, 123, 124, 125, 126, 127, 128, 129, 130, 131, 132, 133, 134, 135, 136, 137, 138, 139, 140, 141, 142, 143, 144, 145, 146, 147, 148, 149, 150, 151, 152, 153, 154, 155, 156, 157, 158, 159, 160, 161, 162, 163, 164, 165, 166, 167, 168, 169, 170, 171, 172, 173, 174, 175, 176, 177, 178, 179, 180, 181, 182, 183, 184, 185, 186, 187, 188, 189, 190, 191, 192, 193, 194, 195, 196, 197, 198, 199, 200, 201, 202, 203, 204, 205, 206, 207, 208, 209, 210, 211, 212, 213, 214, 215, 216, 217, 218, 219, 220, 221, 222, 223, 224, 225, 226, 227, 228, 229, 230, 231, 232, 233, 234, 235, 236, 237, 238, 239, 240, 241, 242, 243, 244, 245, 246, 247, 248, 249, 250, 251, 252, 253, 254, 255, 256, 257, 258, 259, 260, 261, 262, 263, 264, 265, 266, 267, 268, 269, 270, 271, 272, 273, 274, 275, 276, 277, 278, 279, 280, 281, 282, 283, 284, 285, 286, 287, 288, 289, 290, 291, 292, 293, 294, 295, 296, 297, 298, 299, 300, 301, 302, 303, 304, 305, 306, 307, 308, 309, 310, 311, 312, 313, 314, 315, 316, 317, 318, 319, 320, 321, 322, 323, 324, 325, 326, 327, 328, 329, 330, 331, 332, 333, 334, 335, 336, 337, 338, 339, 340, 341, 342, 343, 344, 345, 346, 347, 348, 349, 350, 351, 352, 353, 354, 355, 356, 357, 358, 359, 360, 361, 362, 363, 364, 365, 366, 367, 368, 369, 370, 371, 372, 373],
