{
  "AcquisitionMatrixPE": 108,
  "AcquisitionNumber": 1,
  "AcquisitionTime": "16:18:29.047500",
  "BandwidthPerPixelPhaseEncode": 15.964,
  "BaseResolution": 108,
  "BodyPartExamined": "BRAIN",
  "ConsistencyInfo": "N4_VE11C_LATEST_20160120",
  "ConversionSoftware": "dcm2niix",
  "ConversionSoftwareVersion": "v1.0.20180622 GCC6.3.0",
  "DerivedVendorReportedEchoSpacing": 0.000580009,
  "DeviceSerialNumber": "66054",
  "DwellTime": 2.1e-06,
  "EchoTime": 0.031,
  "EchoTrainLength": 95,
  "EffectiveEchoSpacing": 0.000580009,
  "FlipAngle": 64,
  "ImageOrientationPatientDICOM": [0.999288, -0.00803646, 0.0368542, 0.0156981, 0.977013, -0.2126],
  "ImageType": [
    "ORIGINAL",
    "PRIMARY",
    "M",
    "ND",
    "MOSAIC"
],
  "InPlanePhaseEncodingDirectionDICOM": "COL",
  "InstitutionAddress": "Chemin_des_Mines_9_Geneve_District_CH_1211",
  "InstitutionName": "Fondation_Campus_Biotech_Geneva",
  "InstitutionalDepartmentName": "Department",
  "MRAcquisitionType": "2D",
  "MagneticFieldStrength": 3,
  "Manufacturer": "Siemens",
  "ManufacturersModelName": "Prisma",
  "Modality": "MR",
  "MultibandAccelerationFactor": 4,
  "PartialFourier": 0.875,
  "PatientPosition": "HFS",
  "PercentPhaseFOV": 100,
  "PhaseEncodingDirection": "j-",
  "PhaseEncodingSteps": 95,
  "PhaseResolution": 1,
  "PixelBandwidth": 2205,
  "ProcedureStepDescription": "J.DRM_Michael",
  "ProtocolName": "Run3_bold_s4_TR1.28",
  "PulseSequenceDetails": "%SiemensSeq%_ep2d_bold",
  "ReceiveCoilActiveElements": "HC1-7;NC1,2",
  "ReceiveCoilName": "HeadNeck_64",
  "ReconMatrixPE": 108,
  "RepetitionTime": 1.28,
  "SAR": 0.0706596,
  "ScanOptions": "PFP_FS",
  "ScanningSequence": "EP",
  "SequenceName": "_epfid2d1_108",
  "SequenceVariant": "SK",
  "SeriesDescription": "Run3_bold_s4_TR1.28",
  "SeriesNumber": 9,
  "ShimSetting": [-1254, -11675, 6439, 505, 150, -72, 155, 47],
  "SliceThickness": 2,
  "SliceTiming": [0.945, 0, 0.63, 0.08, 0.71, 0.1575, 0.7875, 0.2375, 0.8675, 0.395, 1.025, 0.4725, 1.1025, 0.5525, 1.1825, 0.315, 0.945, 0, 0.63, 0.08, 0.71, 0.1575, 0.7875, 0.2375, 0.8675, 0.395, 1.025, 0.4725, 1.1025, 0.5525, 1.1825, 0.315, 0.945, 0, 0.63, 0.08, 0.71, 0.1575, 0.7875, 0.2375, 0.8675, 0.395, 1.025, 0.4725, 1.1025, 0.5525, 1.1825, 0.315, 0.945, 0, 0.63, 0.08, 0.71, 0.1575, 0.7875, 0.2375, 0.8675, 0.395, 1.025, 0.4725, 1.1025, 0.5525, 1.1825, 0.315],
  "SoftwareVersions": "syngo_MR_E11",
  "SpacingBetweenSlices": 2,
  "StationName": "AWP66054",
  "TaskName": "main",
  "TotalReadoutTime": 0.0620609,
  "TxRefAmp": 264.591,
  "dcmmeta_affine": [
    [-1.9893240928649902, 0.03125087916851044, 0.06859704852104187, 105.4787826538086],
    [0.01599849946796894, 1.9449799060821533, -0.42605501413345337, -78.81404876708984],
    [0.07336723804473877, 0.42323198914527893, 1.952888011932373, -70.1017074584961],
    [0.0, 0.0, 0.0, 1.0]
],
  "dcmmeta_reorient_transform": [
    [0.0, -1.0, 0.0, 107.0],
    [1.0, 0.0, 0.0, 0.0],
    [0.0, 0.0, 1.0, 0.0],
    [0.0, 0.0, 0.0, 1.0]
],
  "dcmmeta_shape": [108, 108, 64, 373],
  "dcmmeta_slice_dim": 2,
  "dcmmeta_version": 0.6,
  "global": {
    "const": {
      "AccessionNumber": "",
      "AcquisitionMatrix": [108, 0, 0, 108],
      "AngioFlag": "N",
      "BitsAllocated": 16,
      "BitsStored": 12,
      "BodyPartExamined": "BRAIN",
      "Columns": 864,
      "EchoNumbers": 1,
      "EchoTime": 31.0,
      "EchoTrainLength": 95,
      "FlipAngle": 64.0,
      "HighBit": 11,
      "ImageOrientationPatient": [0.9992883369591, -0.0080364554066, 0.03685423994623, 0.01569811513285, 0.97701315330204, -0.2126002527188],
      "ImagePositionPatient": [-872.59994706642, -858.45378311148, 107.43298983428],
      "ImageType": [
        "ORIGINAL",
        "PRIMARY",
        "M",
        "ND",
        "MOSAIC"
],
      "ImagedNucleus": "1H",
      "ImagingFrequency": 123.257373,
      "InPlanePhaseEncodingDirection": "COL",
      "MRAcquisitionType": "2D",
      "MagneticFieldStrength": 3.0,
      "Manufacturer": "SIEMENS",
      "ManufacturerModelName": "Prisma",
      "Modality": "MR",
      "NumberOfAverages": 1.0,
      "NumberOfPhaseEncodingSteps": 95,
      "PercentPhaseFieldOfView": 100.0,
      "PercentSampling": 100.0,
      "PerformedProcedureStepStartTime": "151123.816000",
      "PhotometricInterpretation": "MONOCHROME2",
      "PixelBandwidth": 2205.0,
      "PixelRepresentation": 0,
      "PixelSpacing": [1.990740776062, 1.990740776062],
      "PositionReferenceIndicator": "",
      "ProtocolName": "Run3_bold_s4_TR1.28",
      "RepetitionTime": 1280.0,
      "Rows": 864,
      "SAR": 0.07065962254594,
      "SamplesPerPixel": 1,
      "ScanOptions": [
        "PFP",
        "FS"
],
      "ScanningSequence": "EP",
      "SequenceName": "*epfid2d1_108",
      "SequenceVariant": "SK",
      "SeriesDescription": "Run3_bold_s4_TR1.28",
      "SeriesNumber": 9,
      "SeriesTime": "161912.154000",
      "SliceLocation": -48.043069182852,
      "SliceThickness": 2.0,
      "SmallestImagePixelValue": 0,
      "SoftwareVersions": "syngo MR E11",
      "SpacingBetweenSlices": 2.0000000498554,
      "SpecificCharacterSet": "ISO_IR 100",
      "StudyID": "1",
      "StudyTime": "151123.763000",
      "TransmitCoilName": "Body",
      "VariableFlipAngleFlag": "N",
      "WindowCenterWidthExplanation": "Algo1",
      "dBdt": 0.0},
    "slices": {}
  },
  "time": {
    "samples": {
      "AcquisitionNumber": [1, 2, 3, 4, 5, 6, 7, 8, 9, 10, 11, 12, 13, 14, 15, 16, 17, 18, 19, 20, 21, 22, 23, 24, 25, 26, 27, 28, 29, 30, 31, 32, 33, 34, 35, 36, 37, 38, 39, 40, 41, 42, 43, 44, 45, 46, 47, 48, 49, 50, 51, 52, 53, 54, 55, 56, 57, 58, 59, 60, 61, 62, 63, 64, 65, 66, 67, 68, 69, 70, 71, 72, 73, 74, 75, 76, 77, 78, 79, 80, 81, 82, 83, 84, 85, 86, 87, 88, 89, 90, 91, 92, 93, 94, 95, 96, 97, 98, 99, 100, 101, 102, 103, 104, 105, 106, 107, 108, 109, 110, 111, 112, 113, 114, 115, 116, 117, 118, 119, 120, 121, 122, 123, 124, 125, 126, 127, 128, 129, 130, 131, 132, 133, 134, 135, 136, 137, 138, 139, 140, 141, 142, 143, 144, 145, 146, 147, 148, 149, 150, 151, 152, 153, 154, 155, 156, 157, 158, 159, 160, 161, 162, 163, 164, 165, 166, 167, 168, 169, 170, 171, 172, 173, 174, 175, 176, 177, 178, 179, 180, 181, 182, 183, 184, 185, 186, 187, 188, 189, 190, 191, 192, 193, 194, 195, 196, 197, 198, 199, 200, 201, 202, 203, 204, 205, 206, 207, 208, 209, 210, 211, 212, 213, 214, 215, 216, 217, 218, 219, 220, 221, 222, 223, 224, 225, 226, 227, 228, 229, 230, 231, 232, 233, 234, 235, 236, 237, 238, 239, 240, 241, 242, 243, 244, 245, 246, 247, 248, 249, 250, 251, 252, 253, 254, 255, 256, 257, 258, 259, 260, 261, 262, 263, 264, 265, 266, 267, 268, 269, 270, 271, 272, 273, 274, 275, 276, 277, 278, 279, 280, 281, 282, 283, 284, 285, 286, 287, 288, 289, 290, 291, 292, 293, 294, 295, 296, 297, 298, 299, 300, 301, 302, 303, 304, 305, 306, 307, 308, 309, 310, 311, 312, 313, 314, 315, 316, 317, 318, 319, 320, 321, 322, 323, 324, 325, 326, 327, 328, 329, 330, 331, 332, 333, 334, 335, 336, 337, 338, 339, 340, 341, 342, 343, 344, 345, 346, 347, 348, 349, 350, 351, 352, 353, 354, 355, 356, 357, 358, 359, 360, 361, 362, 363, 364, 365, 366, 367, 368, 369, 370, 371, 372, 373],
      "AcquisitionTime": ["161829.047500", "161830.327500", "161831.607500", "161832.887500", "161834.167500", "161835.447500", "161836.727500", "161838.007500", "161839.287500", "161840.567500", "161841.847500", "161843.127500", "161844.407500", "161845.687500", "161846.967500", "161848.247500", "161849.527500", "161850.807500", "161852.087500", "161853.367500", "161854.647500", "161855.927500", "161857.207500", "161858.487500", "161859.767500", "161901.047500", "161902.327500", "161903.607500", "161904.887500", "161906.167500", "161907.447500", "161908.727500", "161910.007500", "161911.287500", "161912.567500", "161913.847500", "161915.127500", "161916.407500", "161917.687500", "161918.967500", "161920.247500", "161921.527500", "161922.807500", "161924.087500", "161925.367500", "161926.647500", "161927.927500", "161929.207500", "161930.487500", "161931.767500", "161933.047500", "161934.327500", "161935.607500", "161936.887500", "161938.167500", "161939.447500", "161940.727500", "161942.007500", "161943.287500", "161944.567500", "161945.847500", "161947.127500", "161948.407500", "161949.687500", "161950.967500", "161952.247500", "161953.527500", "161954.807500", "161956.087500", "161957.367500", "161958.647500", "161959.927500", "162001.207500", "162002.487500", "162003.767500", "162005.047500", "162006.327500", "162007.607500", "162008.887500", "162010.167500", "162011.447500", "162012.727500", "162014.007500", "162015.287500", "162016.567500", "162017.847500", "162019.127500", "162020.407500", "162021.687500", "162022.967500", "162024.247500", "162025.527500", "162026.807500", "162028.087500", "162029.367500", "162030.647500", "162031.927500", "162033.207500", "162034.487500", "162035.767500", "162037.047500", "162038.327500", "162039.607500", "162040.887500", "162042.167500", "162043.447500", "162044.727500", "162046.007500", "162047.287500", "162048.567500", "162049.847500", "162051.127500", "162052.407500", "162053.687500", "162054.967500", "162056.247500", "162057.527500", "162058.807500", "162100.087500", "162101.367500", "162102.647500", "162103.927500", "162105.207500", "162106.487500", "162107.767500", "162109.047500", "162110.327500", "162111.607500", "162112.887500", "162114.167500", "162115.447500", "162116.727500", "162118.007500", "162119.287500", "162120.567500", "162121.847500", "162123.127500", "162124.407500", "162125.687500", "162126.967500", "162128.247500", "162129.527500", "162130.807500", "162132.087500", "162133.367500", "162134.647500", "162135.927500", "162137.207500", "162138.487500", "162139.767500", "162141.047500", "162142.327500", "162143.607500", "162144.887500", "162146.167500", "162147.447500", "162148.727500", "162150.007500", "162151.287500", "162152.567500", "162153.847500", "162155.127500", "162156.407500", "162157.687500", "162158.967500", "162200.247500", "162201.527500", "162202.807500", "162204.087500", "162205.367500", "162206.647500", "162207.927500", "162209.207500", "162210.487500", "162211.767500", "162213.047500", "162214.327500", "162215.607500", "162216.887500", "162218.167500", "162219.447500", "162220.727500", "162222.007500", "162223.287500", "162224.567500", "162225.847500", "162227.127500", "162228.407500", "162229.687500", "162230.967500", "162232.247500", "162233.527500", "162234.807500", "162236.087500", "162237.367500", "162238.647500", "162239.927500", "162241.207500", "162242.487500", "162243.767500", "162245.047500", "162246.327500", "162247.607500", "162248.887500", "162250.167500", "162251.447500", "162252.727500", "162254.007500", "162255.287500", "162256.567500", "162257.847500", "162259.127500", "162300.407500", "162301.687500", "162302.967500", "162304.247500", "162305.527500", "162306.807500", "162308.087500", "162309.367500", "162310.647500", "162311.927500", "162313.207500", "162314.487500", "162315.767500", "162317.047500", "162318.327500", "162319.607500", "162320.887500", "162322.167500", "162323.447500", "162324.727500", "162326.007500", "162327.287500", "162328.567500", "162329.847500", "162331.127500", "162332.407500", "162333.687500", "162334.967500", "162336.247500", "162337.527500", "162338.807500", "162340.087500", "162341.367500", "162342.647500", "162343.927500", "162345.207500", "162346.487500", "162347.767500", "162349.047500", "162350.327500", "162351.607500", "162352.887500", "162354.167500", "162355.447500", "162356.727500", "162358.007500", "162359.287500", "162400.567500", "162401.847500", "162403.127500", "162404.407500", "162405.687500", "162406.967500", "162408.247500", "162409.527500", "162410.807500", "162412.087500", "162413.367500", "162414.647500", "162415.927500", "162417.207500", "162418.487500", "162419.767500", "162421.047500", "162422.327500", "162423.607500", "162424.887500", "162426.167500", "162427.447500", "162428.727500", "162430.007500", "162431.287500", "162432.567500", "162433.847500", "162435.127500", "162436.407500", "162437.687500", "162438.967500", "162440.247500", "162441.527500", "162442.807500", "162444.087500", "162445.367500", "162446.647500", "162447.927500", "162449.207500", "162450.487500", "162451.767500", "162453.047500", "162454.327500", "162455.607500", "162456.887500", "162458.167500", "162459.447500", "162500.727500", "162502.007500", "162503.287500", "162504.567500", "162505.847500", "162507.127500", "162508.407500", "162509.687500", "162510.967500", "162512.247500", "162513.527500", "162514.807500", "162516.087500", "162517.367500", "162518.647500", "162519.927500", "162521.207500", "162522.487500", "162523.767500", "162525.047500", "162526.327500", "162527.607500", "162528.887500", "162530.167500", "162531.447500", "162532.727500", "162534.007500", "162535.287500", "162536.567500", "162537.847500", "162539.127500", "162540.407500", "162541.687500", "162542.967500", "162544.247500", "162545.527500", "162546.807500", "162548.087500", "162549.367500", "162550.647500", "162551.927500", "162553.207500", "162554.487500", "162555.767500", "162557.047500", "162558.327500", "162559.607500", "162600.887500", "162602.167500", "162603.447500", "162604.727500", "162606.007500", "162607.287500", "162608.567500", "162609.847500", "162611.127500", "162612.407500", "162613.687500", "162614.967500", "162616.247500", "162617.527500", "162618.807500", "162620.087500", "162621.367500", "162622.647500", "162623.927500", "162625.207500"],
      "ContentTime": ["161912.158000", "161912.162000", "161912.165000", "161912.167000", "161912.170000", "161912.177000", "161912.180000", "161912.183000", "161912.186000", "161912.189000", "161912.192000", "161912.194000", "161912.197000", "161912.200000", "161912.203000", "161912.206000", "161912.209000", "161912.212000", "161912.219000", "161912.221000", "161912.224000", "161912.227000", "161912.230000", "161912.233000", "161912.235000", "161912.238000", "161912.241000", "161912.244000", "161912.247000", "161912.250000", "161912.253000", "161912.255000", "161912.258000", "161952.152000", "161952.155000", "161952.158000", "161952.161000", "161952.164000", "161952.167000", "161952.169000", "161952.172000", "161952.175000", "161952.178000", "161952.181000", "161952.184000", "161952.187000", "161952.190000", "161952.193000", "161952.227000", "161952.230000", "161952.232000", "161952.235000", "161952.238000", "161952.241000", "161952.244000", "161952.247000", "161952.249000", "161952.252000", "161952.255000", "161952.258000", "161952.261000", "161952.264000", "161952.267000", "161952.269000", "162032.152000", "162032.155000", "162032.185000", "162032.188000", "162032.190000", "162032.193000", "162032.196000", "162032.214000", "162032.217000", "162032.220000", "162032.223000", "162032.226000", "162032.229000", "162032.232000", "162032.235000", "162032.237000", "162032.240000", "162032.243000", "162032.246000", "162032.249000", "162032.252000", "162032.255000", "162032.258000", "162032.264000", "162032.267000", "162032.270000", "162032.273000", "162032.276000", "162032.278000", "162032.281000", "162032.284000", "162032.287000", "162052.153000", "162052.156000", "162052.159000", "162052.162000", "162052.165000", "162052.168000", "162052.171000", "162052.174000", "162052.177000", "162052.180000", "162052.183000", "162052.186000", "162052.189000", "162052.192000", "162052.195000", "162132.153000", "162132.157000", "162132.160000", "162132.163000", "162132.166000", "162132.169000", "162132.172000", "162132.175000", "162132.178000", "162132.181000", "162132.184000", "162132.187000", "162132.190000", "162132.192000", "162132.195000", "162132.198000", "162132.201000", "162132.204000", "162132.207000", "162132.210000", "162132.213000", "162132.216000", "162132.219000", "162132.222000", "162132.225000", "162132.237000", "162132.240000", "162132.243000", "162132.246000", "162132.249000", "162132.252000", "162132.255000", "162212.152000", "162212.155000", "162212.158000", "162212.161000", "162212.164000", "162212.167000", "162212.169000", "162212.172000", "162212.175000", "162212.178000", "162212.192000", "162212.194000", "162212.197000", "162212.200000", "162212.203000", "162212.206000", "162212.209000", "162212.211000", "162212.214000", "162212.217000", "162212.220000", "162212.223000", "162212.226000", "162212.229000", "162212.232000", "162212.235000", "162212.238000", "162212.241000", "162212.244000", "162212.246000", "162212.249000", "162252.152000", "162252.155000", "162252.165000", "162252.168000", "162252.171000", "162252.174000", "162252.177000", "162252.180000", "162252.183000", "162252.185000", "162252.188000", "162252.192000", "162252.194000", "162252.197000", "162252.200000", "162252.203000", "162252.206000", "162252.209000", "162252.212000", "162252.214000", "162252.217000", "162252.220000", "162252.223000", "162252.226000", "162252.229000", "162252.232000", "162252.234000", "162252.237000", "162252.240000", "162252.243000", "162252.246000", "162332.153000", "162332.156000", "162332.218000", "162332.220000", "162332.223000", "162332.226000", "162332.229000", "162332.232000", "162332.235000", "162332.238000", "162332.240000", "162332.243000", "162332.246000", "162332.249000", "162332.252000", "162332.255000", "162332.258000", "162332.260000", "162332.263000", "162332.266000", "162332.269000", "162332.272000", "162332.275000", "162332.277000", "162332.280000", "162332.283000", "162332.286000", "162332.289000", "162332.292000", "162332.295000", "162332.297000", "162412.152000", "162412.155000", "162412.158000", "162412.188000", "162412.190000", "162412.193000", "162412.196000", "162412.199000", "162412.202000", "162412.205000", "162412.208000", "162412.211000", "162412.214000", "162412.216000", "162412.219000", "162412.222000", "162412.225000", "162412.228000", "162412.231000", "162412.234000", "162412.237000", "162412.239000", "162412.243000", "162412.246000", "162412.249000", "162412.251000", "162412.255000", "162412.257000", "162412.260000", "162412.263000", "162412.266000", "162412.269000", "162452.152000", "162452.155000", "162452.158000", "162452.161000", "162452.164000", "162452.167000", "162452.169000", "162452.172000", "162452.175000", "162452.178000", "162452.181000", "162452.184000", "162452.186000", "162452.189000", "162452.192000", "162452.195000", "162452.198000", "162452.201000", "162452.204000", "162452.206000", "162452.209000", "162452.212000", "162452.215000", "162452.218000", "162452.221000", "162452.224000", "162452.227000", "162452.230000", "162452.233000", "162452.236000", "162452.239000", "162532.153000", "162532.156000", "162532.159000", "162532.162000", "162532.165000", "162532.168000", "162532.170000", "162532.173000", "162532.176000", "162532.179000", "162532.182000", "162532.185000", "162532.188000", "162532.191000", "162532.194000", "162532.197000", "162532.200000", "162532.203000", "162532.205000", "162532.208000", "162532.211000", "162532.214000", "162532.217000", "162532.220000", "162532.223000", "162532.225000", "162532.228000", "162532.231000", "162532.234000", "162532.237000", "162532.240000", "162612.153000", "162612.156000", "162612.159000", "162612.162000", "162612.165000", "162612.168000", "162612.171000", "162612.173000", "162612.180000", "162612.183000", "162612.186000", "162612.189000", "162612.192000", "162612.195000", "162612.197000", "162612.211000", "162612.214000", "162612.217000", "162612.220000", "162612.222000", "162612.225000", "162612.228000", "162612.231000", "162612.234000", "162612.237000", "162612.239000", "162612.242000", "162612.245000", "162612.248000", "162612.251000", "162612.254000", "162626.371000", "162626.374000", "162626.378000", "162626.382000", "162626.385000", "162626.388000", "162626.391000", "162626.394000", "162626.397000", "162626.401000", "162626.404000", "162626.407000"],
      "InstanceCreationTime": ["161912.158000", "161912.162000", "161912.165000", "161912.167000", "161912.170000", "161912.177000", "161912.180000", "161912.183000", "161912.186000", "161912.189000", "161912.192000", "161912.194000", "161912.197000", "161912.200000", "161912.203000", "161912.206000", "161912.209000", "161912.212000", "161912.219000", "161912.221000", "161912.224000", "161912.227000", "161912.230000", "161912.233000", "161912.235000", "161912.238000", "161912.241000", "161912.244000", "161912.247000", "161912.250000", "161912.253000", "161912.255000", "161912.258000", "161952.152000", "161952.155000", "161952.158000", "161952.161000", "161952.164000", "161952.167000", "161952.169000", "161952.172000", "161952.175000", "161952.178000", "161952.181000", "161952.184000", "161952.187000", "161952.190000", "161952.193000", "161952.227000", "161952.230000", "161952.232000", "161952.235000", "161952.238000", "161952.241000", "161952.244000", "161952.247000", "161952.249000", "161952.252000", "161952.255000", "161952.258000", "161952.261000", "161952.264000", "161952.267000", "161952.269000", "162032.152000", "162032.155000", "162032.185000", "162032.188000", "162032.190000", "162032.193000", "162032.196000", "162032.214000", "162032.217000", "162032.220000", "162032.223000", "162032.226000", "162032.229000", "162032.232000", "162032.235000", "162032.237000", "162032.240000", "162032.243000", "162032.246000", "162032.249000", "162032.252000", "162032.255000", "162032.258000", "162032.264000", "162032.267000", "162032.270000", "162032.273000", "162032.276000", "162032.278000", "162032.281000", "162032.284000", "162032.287000", "162052.153000", "162052.156000", "162052.159000", "162052.162000", "162052.165000", "162052.168000", "162052.171000", "162052.174000", "162052.177000", "162052.180000", "162052.183000", "162052.186000", "162052.189000", "162052.192000", "162052.195000", "162132.153000", "162132.157000", "162132.160000", "162132.163000", "162132.166000", "162132.169000", "162132.172000", "162132.175000", "162132.178000", "162132.181000", "162132.184000", "162132.187000", "162132.190000", "162132.192000", "162132.195000", "162132.198000", "162132.201000", "162132.204000", "162132.207000", "162132.210000", "162132.213000", "162132.216000", "162132.219000", "162132.222000", "162132.225000", "162132.237000", "162132.240000", "162132.243000", "162132.246000", "162132.249000", "162132.252000", "162132.255000", "162212.152000", "162212.155000", "162212.158000", "162212.161000", "162212.164000", "162212.167000", "162212.169000", "162212.172000", "162212.175000", "162212.178000", "162212.192000", "162212.194000", "162212.197000", "162212.200000", "162212.203000", "162212.206000", "162212.209000", "162212.211000", "162212.214000", "162212.217000", "162212.220000", "162212.223000", "162212.226000", "162212.229000", "162212.232000", "162212.235000", "162212.238000", "162212.241000", "162212.244000", "162212.246000", "162212.249000", "162252.152000", "162252.155000", "162252.165000", "162252.168000", "162252.171000", "162252.174000", "162252.177000", "162252.180000", "162252.183000", "162252.185000", "162252.188000", "162252.192000", "162252.194000", "162252.197000", "162252.200000", "162252.203000", "162252.206000", "162252.209000", "162252.212000", "162252.214000", "162252.217000", "162252.220000", "162252.223000", "162252.226000", "162252.229000", "162252.232000", "162252.234000", "162252.237000", "162252.240000", "162252.243000", "162252.246000", "162332.153000", "162332.156000", "162332.218000", "162332.220000", "162332.223000", "162332.226000", "162332.229000", "162332.232000", "162332.235000", "162332.238000", "162332.240000", "162332.243000", "162332.246000", "162332.249000", "162332.252000", "162332.255000", "162332.258000", "162332.260000", "162332.263000", "162332.266000", "162332.269000", "162332.272000", "162332.275000", "162332.277000", "162332.280000", "162332.283000", "162332.286000", "162332.289000", "162332.292000", "162332.295000", "162332.297000", "162412.152000", "162412.155000", "162412.158000", "162412.188000", "162412.190000", "162412.193000", "162412.196000", "162412.199000", "162412.202000", "162412.205000", "162412.208000", "162412.211000", "162412.214000", "162412.216000", "162412.219000", "162412.222000", "162412.225000", "162412.228000", "162412.231000", "162412.234000", "162412.237000", "162412.239000", "162412.243000", "162412.246000", "162412.249000", "162412.251000", "162412.255000", "162412.257000", "162412.260000", "162412.263000", "162412.266000", "162412.269000", "162452.152000", "162452.155000", "162452.158000", "162452.161000", "162452.164000", "162452.167000", "162452.169000", "162452.172000", "162452.175000", "162452.178000", "162452.181000", "162452.184000", "162452.186000", "162452.189000", "162452.192000", "162452.195000", "162452.198000", "162452.201000", "162452.204000", "162452.206000", "162452.209000", "162452.212000", "162452.215000", "162452.218000", "162452.221000", "162452.224000", "162452.227000", "162452.230000", "162452.233000", "162452.236000", "162452.239000", "162532.153000", "162532.156000", "162532.159000", "162532.162000", "162532.165000", "162532.168000", "162532.170000", "162532.173000", "162532.176000", "162532.179000", "162532.182000", "162532.185000", "162532.188000", "162532.191000", "162532.194000", "162532.197000", "162532.200000", "162532.203000", "162532.205000", "162532.208000", "162532.211000", "162532.214000", "162532.217000", "162532.220000", "162532.223000", "162532.225000", "162532.228000", "162532.231000", "162532.234000", "162532.237000", "162532.240000", "162612.153000", "162612.156000", "162612.159000", "162612.162000", "162612.165000", "162612.168000", "162612.171000", "162612.173000", "162612.180000", "162612.183000", "162612.186000", "162612.189000", "162612.192000", "162612.195000", "162612.197000", "162612.211000", "162612.214000", "162612.217000", "162612.220000", "162612.222000", "162612.225000", "162612.228000", "162612.231000", "162612.234000", "162612.237000", "162612.239000", "162612.242000", "162612.245000", "162612.248000", "162612.251000", "162612.254000", "162626.371000", "162626.374000", "162626.378000", "162626.382000", "162626.385000", "162626.388000", "162626.391000", "162626.394000", "162626.397000", "162626.401000", "162626.404000", "162626.407000"],
      "InstanceNumber": [1, 2, 3, 4, 5, 6, 7, 8, 9, 10, 11, 12, 13, 14, 15, 16, 17, 18, 19, 20, 21, 22, 23, 24, 25, 26, 27, 28, 29, 30, 31, 32, 33, 34, 35, 36, 37, 38, 39, 40, 41, 42, 43, 44, 45, 46, 47, 48, 49, 50, 51, 52, 53, 54, 55, 56, 57, 58, 59, 60, 61, 62, 63, 64, 65, 66, 67, 68, 69, 70, 71, 72, 73, 74, 75, 76, 77, 78, 79, 80, 81, 82, 83, 84, 85, 86, 87, 88, 89, 90, 91, 92, 93, 94, 95, 96, 97, 98, 99, 100, 101, 102, 103, 104, 105, 106, 107, 108, 109, 110, 111, 112, 113, 114, 115, 116, 117, 118, 119, 120, 121, 122, 123, 124, 125, 126, 127, 128, 129, 130, 131, 132, 133, 134, 135, 136, 137, 138, 139, 140, 141, 142, 143, 144, 145, 146, 147, 148, 149, 150, 151, 152, 153, 154, 155, 156, 157, 158, 159, 160, 161, 162, 163, 164, 165, 166, 167, 168, 169, 170, 171, 172, 173, 174, 175, 176, 177, 178, 179, 180, 181, 182, 183, 184, 185, 186, 187, 188, 189, 190, 191, 192, 193, 194, 195, 196, 197, 198, 199, 200, 201, 202, 203, 204, 205, 206, 207, 208, 209, 210, 211, 212, 213, 214, 215, 216, 217, 218, 219, 220, 221, 222, 223, 224, 225, 226, 227, 228, 229, 230, 231, 232, 233, 234, 235, 236, 237, 238, 239, 240, 241, 242, 243, 244, 245, 246, 247, 248, 249, 250, 251, 252, 253, 254, 255, 256, 257, 258, 259, 260, 261, 262, 263, 264, 265, 266, 267, 268, 269, 270, 271, 272, 273, 274, 275, 276, 277, 278, 279, 280, 281, 282, 283, 284, 285, 286, 287, 288, 289, 290, 291, 292, 293, 294, 295, 296, 297, 298, 299, 300, 301, 302, 303, 304, 305, 306, 307, 308, 309, 310, 311, 312, 313, 314, 315, 316, 317, 318, 319, 320, 321, 322, 323, 324, 325, 326, 327, 328, 329, 330, 331, 332, 333, 334, 335, 336, 337, 338, 339, 340, 341, 342, 343, 344, 345, 346, 347, 348, 349, 350, 351, 352, 353, 354, 355, 356, 357, 358, 359, 360, 361, 362, 363, 364, 365, 366, 367, 368, 369, 370, 371, 372, 373],
