{
  "AcquisitionMatrixPE": 108,
  "AcquisitionNumber": 1,
  "AcquisitionTime": "15:52:11.442500",
  "BandwidthPerPixelPhaseEncode": 15.964,
  "BaseResolution": 108,
  "BodyPartExamined": "BRAIN",
  "ConsistencyInfo": "N4_VE11C_LATEST_20160120",
  "ConversionSoftware": "dcm2niix",
  "ConversionSoftwareVersion": "v1.0.20180622 GCC6.3.0",
  "DerivedVendorReportedEchoSpacing": 0.000580009,
  "DeviceSerialNumber": "66054",
  "DwellTime": 2.1e-06,
  "EchoTime": 0.031,
  "EchoTrainLength": 95,
  "EffectiveEchoSpacing": 0.000580009,
  "FlipAngle": 64,
  "ImageOrientationPatientDICOM": [0.999288, -0.00803646, 0.0368542, 0.0156981, 0.977013, -0.2126],
  "ImageType": [
    "ORIGINAL",
    "PRIMARY",
    "M",
    "ND",
    "MOSAIC"
],
  "InPlanePhaseEncodingDirectionDICOM": "COL",
  "InstitutionAddress": "Chemin_des_Mines_9_Geneve_District_CH_1211",
  "InstitutionName": "Fondation_Campus_Biotech_Geneva",
  "InstitutionalDepartmentName": "Department",
  "MRAcquisitionType": "2D",
  "MagneticFieldStrength": 3,
  "Manufacturer": "Siemens",
  "ManufacturersModelName": "Prisma",
  "Modality": "MR",
  "MultibandAccelerationFactor": 4,
  "PartialFourier": 0.875,
  "PatientPosition": "HFS",
  "PercentPhaseFOV": 100,
  "PhaseEncodingDirection": "j-",
  "PhaseEncodingSteps": 95,
  "PhaseResolution": 1,
  "PixelBandwidth": 2205,
  "ProcedureStepDescription": "J.DRM_Michael",
  "ProtocolName": "Run1_bold_s4_TR1.28",
  "PulseSequenceDetails": "%SiemensSeq%_ep2d_bold",
  "ReceiveCoilActiveElements": "HC1-7;NC1,2",
  "ReceiveCoilName": "HeadNeck_64",
  "ReconMatrixPE": 108,
  "RepetitionTime": 1.28,
  "SAR": 0.0706596,
  "ScanOptions": "PFP_FS",
  "ScanningSequence": "EP",
  "SequenceName": "_epfid2d1_108",
  "SequenceVariant": "SK",
  "SeriesDescription": "Run1_bold_s4_TR1.28",
  "SeriesNumber": 5,
  "ShimSetting": [-1254, -11675, 6439, 505, 150, -72, 155, 47],
  "SliceThickness": 2,
  "SliceTiming": [0.9425, 0, 0.6275, 0.0775, 0.7075, 0.1575, 0.785, 0.235, 0.865, 0.3925, 1.0225, 0.47, 1.1, 0.55, 1.18, 0.315, 0.9425, 0, 0.6275, 0.0775, 0.7075, 0.1575, 0.785, 0.235, 0.865, 0.3925, 1.0225, 0.47, 1.1, 0.55, 1.18, 0.315, 0.9425, 0, 0.6275, 0.0775, 0.7075, 0.1575, 0.785, 0.235, 0.865, 0.3925, 1.0225, 0.47, 1.1, 0.55, 1.18, 0.315, 0.9425, 0, 0.6275, 0.0775, 0.7075, 0.1575, 0.785, 0.235, 0.865, 0.3925, 1.0225, 0.47, 1.1, 0.55, 1.18, 0.315],
  "SoftwareVersions": "syngo_MR_E11",
  "SpacingBetweenSlices": 2,
  "StationName": "AWP66054",
  "TaskName": "main",
  "TotalReadoutTime": 0.0620609,
  "TxRefAmp": 264.591,
  "dcmmeta_affine": [
    [-1.9893240928649902, 0.03125087916851044, 0.06859704852104187, 105.4787826538086],
    [0.01599849946796894, 1.9449799060821533, -0.42605501413345337, -78.81404876708984],
    [0.07336723804473877, 0.42323198914527893, 1.952888011932373, -70.1017074584961],
    [0.0, 0.0, 0.0, 1.0]
],
  "dcmmeta_reorient_transform": [
    [0.0, -1.0, 0.0, 107.0],
    [1.0, 0.0, 0.0, 0.0],
    [0.0, 0.0, 1.0, 0.0],
    [0.0, 0.0, 0.0, 1.0]
],
  "dcmmeta_shape": [108, 108, 64, 373],
  "dcmmeta_slice_dim": 2,
  "dcmmeta_version": 0.6,
  "global": {
    "const": {
      "AccessionNumber": "",
      "AcquisitionMatrix": [108, 0, 0, 108],
      "AngioFlag": "N",
      "BitsAllocated": 16,
      "BitsStored": 12,
      "BodyPartExamined": "BRAIN",
      "Columns": 864,
      "EchoNumbers": 1,
      "EchoTime": 31.0,
      "EchoTrainLength": 95,
      "FlipAngle": 64.0,
      "HighBit": 11,
      "ImageOrientationPatient": [0.9992883369591, -0.0080364554066, 0.03685423994623, 0.01569811513285, 0.97701315330204, -0.2126002527188],
      "ImagePositionPatient": [-872.59994706642, -858.45378311148, 107.43298983428],
      "ImageType": [
        "ORIGINAL",
        "PRIMARY",
        "M",
        "ND",
        "MOSAIC"
],
      "ImagedNucleus": "1H",
      "ImagingFrequency": 123.257351,
      "InPlanePhaseEncodingDirection": "COL",
      "MRAcquisitionType": "2D",
      "MagneticFieldStrength": 3.0,
      "Manufacturer": "SIEMENS",
      "ManufacturerModelName": "Prisma",
      "Modality": "MR",
      "NumberOfAverages": 1.0,
      "NumberOfPhaseEncodingSteps": 95,
      "PercentPhaseFieldOfView": 100.0,
      "PercentSampling": 100.0,
      "PerformedProcedureStepStartTime": "151123.816000",
      "PhotometricInterpretation": "MONOCHROME2",
      "PixelBandwidth": 2205.0,
      "PixelRepresentation": 0,
      "PixelSpacing": [1.990740776062, 1.990740776062],
      "PositionReferenceIndicator": "",
      "ProtocolName": "Run1_bold_s4_TR1.28",
      "RepetitionTime": 1280.0,
      "Rows": 864,
      "SAR": 0.07065962254594,
      "SamplesPerPixel": 1,
      "ScanOptions": [
        "PFP",
        "FS"
],
      "ScanningSequence": "EP",
      "SequenceName": "*epfid2d1_108",
      "SequenceVariant": "SK",
      "SeriesDescription": "Run1_bold_s4_TR1.28",
      "SeriesNumber": 5,
      "SeriesTime": "155247.886000",
      "SliceLocation": -48.043069182852,
      "SliceThickness": 2.0,
      "SmallestImagePixelValue": 0,
      "SoftwareVersions": "syngo MR E11",
      "SpacingBetweenSlices": 2.0000000498554,
      "SpecificCharacterSet": "ISO_IR 100",
      "StudyID": "1",
      "StudyTime": "151123.763000",
      "TransmitCoilName": "Body",
      "VariableFlipAngleFlag": "N",
      "WindowCenterWidthExplanation": "Algo1",
      "dBdt": 0.0},
    "slices": {}
  },
  "time": {
    "samples": {
      "AcquisitionNumber": [1, 2, 3, 4, 5, 6, 7, 8, 9, 10, 11, 12, 13, 14, 15, 16, 17, 18, 19, 20, 21, 22, 23, 24, 25, 26, 27, 28, 29, 30, 31, 32, 33, 34, 35, 36, 37, 38, 39, 40, 41, 42, 43, 44, 45, 46, 47, 48, 49, 50, 51, 52, 53, 54, 55, 56, 57, 58, 59, 60, 61, 62, 63, 64, 65, 66, 67, 68, 69, 70, 71, 72, 73, 74, 75, 76, 77, 78, 79, 80, 81, 82, 83, 84, 85, 86, 87, 88, 89, 90, 91, 92, 93, 94, 95, 96, 97, 98, 99, 100, 101, 102, 103, 104, 105, 106, 107, 108, 109, 110, 111, 112, 113, 114, 115, 116, 117, 118, 119, 120, 121, 122, 123, 124, 125, 126, 127, 128, 129, 130, 131, 132, 133, 134, 135, 136, 137, 138, 139, 140, 141, 142, 143, 144, 145, 146, 147, 148, 149, 150, 151, 152, 153, 154, 155, 156, 157, 158, 159, 160, 161, 162, 163, 164, 165, 166, 167, 168, 169, 170, 171, 172, 173, 174, 175, 176, 177, 178, 179, 180, 181, 182, 183, 184, 185, 186, 187, 188, 189, 190, 191, 192, 193, 194, 195, 196, 197, 198, 199, 200, 201, 202, 203, 204, 205, 206, 207, 208, 209, 210, 211, 212, 213, 214, 215, 216, 217, 218, 219, 220, 221, 222, 223, 224, 225, 226, 227, 228, 229, 230, 231, 232, 233, 234, 235, 236, 237, 238, 239, 240, 241, 242, 243, 244, 245, 246, 247, 248, 249, 250, 251, 252, 253, 254, 255, 256, 257, 258, 259, 260, 261, 262, 263, 264, 265, 266, 267, 268, 269, 270, 271, 272, 273, 274, 275, 276, 277, 278, 279, 280, 281, 282, 283, 284, 285, 286, 287, 288, 289, 290, 291, 292, 293, 294, 295, 296, 297, 298, 299, 300, 301, 302, 303, 304, 305, 306, 307, 308, 309, 310, 311, 312, 313, 314, 315, 316, 317, 318, 319, 320, 321, 322, 323, 324, 325, 326, 327, 328, 329, 330, 331, 332, 333, 334, 335, 336, 337, 338, 339, 340, 341, 342, 343, 344, 345, 346, 347, 348, 349, 350, 351, 352, 353, 354, 355, 356, 357, 358, 359, 360, 361, 362, 363, 364, 365, 366, 367, 368, 369, 370, 371, 372, 373],
      "AcquisitionTime": ["155211.442500", "155212.722500", "155214.002500", "155215.282500", "155216.562500", "155217.842500", "155219.122500", "155220.402500", "155221.682500", "155222.962500", "155224.242500", "155225.522500", "155226.802500", "155228.082500", "155229.362500", "155230.642500", "155231.922500", "155233.202500", "155234.482500", "155235.762500", "155237.042500", "155238.322500", "155239.602500", "155240.882500", "155242.162500", "155243.442500", "155244.722500", "155246.002500", "155247.282500", "155248.562500", "155249.842500", "155251.122500", "155252.402500", "155253.682500", "155254.962500", "155256.242500", "155257.522500", "155258.802500", "155300.082500", "155301.362500", "155302.642500", "155303.922500", "155305.202500", "155306.482500", "155307.762500", "155309.042500", "155310.322500", "155311.602500", "155312.882500", "155314.162500", "155315.442500", "155316.722500", "155318.002500", "155319.282500", "155320.562500", "155321.842500", "155323.122500", "155324.402500", "155325.682500", "155326.962500", "155328.242500", "155329.522500", "155330.802500", "155332.082500", "155333.362500", "155334.642500", "155335.922500", "155337.202500", "155338.482500", "155339.762500", "155341.042500", "155342.322500", "155343.602500", "155344.882500", "155346.162500", "155347.442500", "155348.722500", "155350.002500", "155351.282500", "155352.562500", "155353.842500", "155355.122500", "155356.402500", "155357.682500", "155358.962500", "155400.242500", "155401.522500", "155402.802500", "155404.082500", "155405.362500", "155406.642500", "155407.922500", "155409.202500", "155410.482500", "155411.762500", "155413.042500", "155414.322500", "155415.602500", "155416.882500", "155418.162500", "155419.442500", "155420.722500", "155422.002500", "155423.282500", "155424.562500", "155425.842500", "155427.122500", "155428.402500", "155429.682500", "155430.962500", "155432.242500", "155433.522500", "155434.802500", "155436.082500", "155437.362500", "155438.642500", "155439.922500", "155441.202500", "155442.482500", "155443.762500", "155445.042500", "155446.322500", "155447.602500", "155448.882500", "155450.162500", "155451.442500", "155452.722500", "155454.002500", "155455.282500", "155456.562500", "155457.842500", "155459.122500", "155500.402500", "155501.682500", "155502.962500", "155504.242500", "155505.522500", "155506.802500", "155508.082500", "155509.362500", "155510.642500", "155511.922500", "155513.202500", "155514.482500", "155515.762500", "155517.042500", "155518.322500", "155519.602500", "155520.882500", "155522.162500", "155523.442500", "155524.722500", "155526.002500", "155527.282500", "155528.562500", "155529.842500", "155531.122500", "155532.402500", "155533.682500", "155534.962500", "155536.242500", "155537.522500", "155538.802500", "155540.082500", "155541.362500", "155542.642500", "155543.922500", "155545.202500", "155546.482500", "155547.762500", "155549.042500", "155550.322500", "155551.602500", "155552.882500", "155554.162500", "155555.442500", "155556.722500", "155558.002500", "155559.282500", "155600.562500", "155601.842500", "155603.122500", "155604.402500", "155605.682500", "155606.962500", "155608.242500", "155609.522500", "155610.802500", "155612.082500", "155613.362500", "155614.642500", "155615.922500", "155617.202500", "155618.482500", "155619.762500", "155621.042500", "155622.322500", "155623.602500", "155624.882500", "155626.162500", "155627.442500", "155628.722500", "155630.002500", "155631.282500", "155632.562500", "155633.842500", "155635.122500", "155636.402500", "155637.682500", "155638.962500", "155640.242500", "155641.522500", "155642.802500", "155644.082500", "155645.362500", "155646.642500", "155647.922500", "155649.202500", "155650.482500", "155651.762500", "155653.042500", "155654.322500", "155655.602500", "155656.882500", "155658.162500", "155659.442500", "155700.722500", "155702.002500", "155703.282500", "155704.562500", "155705.842500", "155707.122500", "155708.402500", "155709.682500", "155710.962500", "155712.242500", "155713.522500", "155714.802500", "155716.082500", "155717.362500", "155718.642500", "155719.922500", "155721.202500", "155722.482500", "155723.762500", "155725.042500", "155726.322500", "155727.602500", "155728.882500", "155730.162500", "155731.442500", "155732.722500", "155734.002500", "155735.282500", "155736.562500", "155737.842500", "155739.122500", "155740.402500", "155741.682500", "155742.962500", "155744.242500", "155745.522500", "155746.802500", "155748.082500", "155749.362500", "155750.642500", "155751.922500", "155753.202500", "155754.482500", "155755.762500", "155757.042500", "155758.322500", "155759.602500", "155800.882500", "155802.162500", "155803.442500", "155804.722500", "155806.002500", "155807.282500", "155808.562500", "155809.842500", "155811.122500", "155812.402500", "155813.682500", "155814.962500", "155816.242500", "155817.522500", "155818.802500", "155820.082500", "155821.362500", "155822.642500", "155823.922500", "155825.202500", "155826.482500", "155827.762500", "155829.042500", "155830.322500", "155831.602500", "155832.882500", "155834.162500", "155835.442500", "155836.722500", "155838.002500", "155839.282500", "155840.562500", "155841.842500", "155843.122500", "155844.402500", "155845.682500", "155846.962500", "155848.242500", "155849.522500", "155850.802500", "155852.082500", "155853.362500", "155854.642500", "155855.922500", "155857.202500", "155858.482500", "155859.762500", "155901.042500", "155902.322500", "155903.602500", "155904.882500", "155906.162500", "155907.442500", "155908.722500", "155910.002500", "155911.282500", "155912.562500", "155913.842500", "155915.122500", "155916.402500", "155917.682500", "155918.962500", "155920.242500", "155921.522500", "155922.802500", "155924.082500", "155925.362500", "155926.642500", "155927.922500", "155929.202500", "155930.482500", "155931.762500", "155933.042500", "155934.322500", "155935.602500", "155936.882500", "155938.162500", "155939.442500", "155940.722500", "155942.002500", "155943.282500", "155944.562500", "155945.842500", "155947.122500", "155948.402500", "155949.682500", "155950.962500", "155952.242500", "155953.522500", "155954.802500", "155956.082500", "155957.362500", "155958.642500", "155959.922500", "160001.202500", "160002.482500", "160003.762500", "160005.042500", "160006.322500", "160007.602500"],
      "ContentTime": ["155247.890000", "155247.893000", "155247.896000", "155247.899000", "155247.902000", "155247.905000", "155247.908000", "155247.911000", "155247.914000", "155247.917000", "155247.920000", "155247.922000", "155247.925000", "155247.928000", "155247.938000", "155247.941000", "155247.946000", "155247.949000", "155247.952000", "155247.955000", "155247.958000", "155247.961000", "155247.963000", "155247.970000", "155247.973000", "155247.976000", "155247.978000", "155247.981000", "155327.885000", "155327.888000", "155327.891000", "155327.894000", "155327.897000", "155327.900000", "155327.902000", "155327.905000", "155327.908000", "155327.911000", "155327.914000", "155327.917000", "155327.920000", "155327.923000", "155327.926000", "155327.936000", "155327.939000", "155327.942000", "155327.945000", "155327.947000", "155327.950000", "155327.953000", "155327.956000", "155327.959000", "155327.962000", "155327.965000", "155327.968000", "155327.970000", "155327.973000", "155327.976000", "155327.979000", "155327.982000", "155407.886000", "155407.889000", "155407.892000", "155407.895000", "155407.898000", "155407.901000", "155407.904000", "155407.907000", "155407.909000", "155407.912000", "155407.915000", "155407.918000", "155407.921000", "155407.924000", "155407.926000", "155407.929000", "155407.932000", "155407.940000", "155407.943000", "155407.946000", "155407.949000", "155407.952000", "155407.955000", "155407.957000", "155407.960000", "155407.963000", "155407.966000", "155407.969000", "155407.972000", "155407.975000", "155407.977000", "155447.886000", "155447.889000", "155447.897000", "155447.900000", "155447.903000", "155447.906000", "155447.909000", "155447.912000", "155447.915000", "155447.917000", "155447.920000", "155447.923000", "155447.926000", "155447.929000", "155447.932000", "155447.935000", "155447.937000", "155447.940000", "155447.943000", "155447.946000", "155447.949000", "155447.952000", "155447.955000", "155447.958000", "155447.960000", "155447.963000", "155447.966000", "155447.969000", "155447.972000", "155447.975000", "155447.978000", "155527.885000", "155527.888000", "155527.891000", "155527.894000", "155527.897000", "155527.900000", "155527.903000", "155527.905000", "155527.908000", "155527.911000", "155527.914000", "155527.917000", "155527.920000", "155527.923000", "155527.925000", "155527.939000", "155527.941000", "155527.944000", "155527.947000", "155527.950000", "155527.953000", "155527.956000", "155527.959000", "155527.961000", "155527.964000", "155527.967000", "155527.970000", "155527.973000", "155527.976000", "155527.978000", "155527.981000", "155607.886000", "155607.889000", "155607.892000", "155607.895000", "155607.898000", "155607.901000", "155607.903000", "155607.906000", "155607.909000", "155607.912000", "155607.915000", "155607.918000", "155607.921000", "155607.924000", "155607.927000", "155607.930000", "155607.933000", "155607.936000", "155607.939000", "155607.942000", "155607.944000", "155607.947000", "155607.950000", "155607.953000", "155607.956000", "155607.959000", "155607.962000", "155607.964000", "155607.967000", "155607.970000", "155607.973000", "155647.886000", "155647.889000", "155647.892000", "155647.895000", "155647.898000", "155647.901000", "155647.903000", "155647.906000", "155647.909000", "155647.912000", "155647.915000", "155647.918000", "155647.921000", "155647.923000", "155647.926000", "155647.929000", "155647.932000", "155647.935000", "155647.938000", "155647.941000", "155647.944000", "155647.946000", "155647.949000", "155647.952000", "155647.962000", "155647.965000", "155647.968000", "155647.971000", "155647.974000", "155647.976000", "155647.979000", "155647.982000", "155727.885000", "155727.888000", "155727.891000", "155727.894000", "155727.897000", "155727.899000", "155727.902000", "155727.905000", "155727.908000", "155727.911000", "155727.914000", "155727.917000", "155727.920000", "155727.922000", "155727.925000", "155727.928000", "155727.931000", "155727.934000", "155727.937000", "155727.940000", "155727.943000", "155727.946000", "155727.948000", "155727.951000", "155727.954000", "155727.957000", "155727.960000", "155727.963000", "155727.966000", "155727.969000", "155727.971000", "155807.886000", "155807.889000", "155807.892000", "155807.895000", "155807.898000", "155807.901000", "155807.903000", "155807.906000", "155807.909000", "155807.912000", "155807.915000", "155807.931000", "155807.934000", "155807.937000", "155807.940000", "155807.942000", "155807.945000", "155807.948000", "155807.951000", "155807.954000", "155807.957000", "155807.959000", "155807.962000", "155807.965000", "155807.968000", "155807.971000", "155807.974000", "155807.977000", "155807.980000", "155807.982000", "155807.985000", "155847.886000", "155847.889000", "155847.892000", "155847.895000", "155847.898000", "155847.900000", "155847.903000", "155847.906000", "155847.909000", "155847.912000", "155847.915000", "155847.918000", "155847.921000", "155847.923000", "155847.926000", "155847.929000", "155847.932000", "155847.935000", "155847.938000", "155847.941000", "155847.944000", "155847.946000", "155847.949000", "155847.952000", "155847.955000", "155847.958000", "155847.961000", "155847.963000", "155847.966000", "155847.969000", "155847.972000", "155847.975000", "155927.885000", "155927.888000", "155927.891000", "155927.894000", "155927.897000", "155927.900000", "155927.903000", "155927.906000", "155927.909000", "155927.912000", "155927.915000", "155927.918000", "155927.920000", "155927.923000", "155927.940000", "155927.943000", "155927.946000", "155927.949000", "155927.952000", "155927.955000", "155927.958000", "155927.961000", "155927.963000", "155927.966000", "155927.969000", "155927.972000", "155927.975000", "155927.978000", "155927.981000", "155927.984000", "155927.986000", "160007.885000", "160007.888000", "160007.891000", "160007.894000", "160007.897000", "160007.900000", "160007.903000", "160007.905000", "160007.908000", "160007.911000", "160007.914000", "160007.917000", "160007.920000", "160007.923000", "160007.925000", "160007.928000", "160007.941000", "160007.944000", "160007.947000", "160007.950000", "160007.953000", "160007.956000", "160007.959000", "160007.962000", "160007.965000", "160007.968000", "160007.974000", "160007.977000", "160007.980000", "160007.983000", "160007.986000", "160008.505000"],
      "InstanceCreationTime": ["155247.890000", "155247.893000", "155247.896000", "155247.899000", "155247.902000", "155247.905000", "155247.908000", "155247.911000", "155247.914000", "155247.917000", "155247.920000", "155247.922000", "155247.925000", "155247.928000", "155247.938000", "155247.941000", "155247.946000", "155247.949000", "155247.952000", "155247.955000", "155247.958000", "155247.961000", "155247.963000", "155247.970000", "155247.973000", "155247.976000", "155247.978000", "155247.981000", "155327.885000", "155327.888000", "155327.891000", "155327.894000", "155327.897000", "155327.900000", "155327.902000", "155327.905000", "155327.908000", "155327.911000", "155327.914000", "155327.917000", "155327.920000", "155327.923000", "155327.926000", "155327.936000", "155327.939000", "155327.942000", "155327.945000", "155327.947000", "155327.950000", "155327.953000", "155327.956000", "155327.959000", "155327.962000", "155327.965000", "155327.968000", "155327.970000", "155327.973000", "155327.976000", "155327.979000", "155327.982000", "155407.886000", "155407.889000", "155407.892000", "155407.895000", "155407.898000", "155407.901000", "155407.904000", "155407.907000", "155407.909000", "155407.912000", "155407.915000", "155407.918000", "155407.921000", "155407.924000", "155407.926000", "155407.929000", "155407.932000", "155407.940000", "155407.943000", "155407.946000", "155407.949000", "155407.952000", "155407.955000", "155407.957000", "155407.960000", "155407.963000", "155407.966000", "155407.969000", "155407.972000", "155407.975000", "155407.977000", "155447.886000", "155447.889000", "155447.897000", "155447.900000", "155447.903000", "155447.906000", "155447.909000", "155447.912000", "155447.915000", "155447.917000", "155447.920000", "155447.923000", "155447.926000", "155447.929000", "155447.932000", "155447.935000", "155447.937000", "155447.940000", "155447.943000", "155447.946000", "155447.949000", "155447.952000", "155447.955000", "155447.958000", "155447.960000", "155447.963000", "155447.966000", "155447.969000", "155447.972000", "155447.975000", "155447.978000", "155527.885000", "155527.888000", "155527.891000", "155527.894000", "155527.897000", "155527.900000", "155527.903000", "155527.905000", "155527.908000", "155527.911000", "155527.914000", "155527.917000", "155527.920000", "155527.923000", "155527.925000", "155527.939000", "155527.941000", "155527.944000", "155527.947000", "155527.950000", "155527.953000", "155527.956000", "155527.959000", "155527.961000", "155527.964000", "155527.967000", "155527.970000", "155527.973000", "155527.976000", "155527.978000", "155527.981000", "155607.886000", "155607.889000", "155607.892000", "155607.895000", "155607.898000", "155607.901000", "155607.903000", "155607.906000", "155607.909000", "155607.912000", "155607.915000", "155607.918000", "155607.921000", "155607.924000", "155607.927000", "155607.930000", "155607.933000", "155607.936000", "155607.939000", "155607.942000", "155607.944000", "155607.947000", "155607.950000", "155607.953000", "155607.956000", "155607.959000", "155607.962000", "155607.964000", "155607.967000", "155607.970000", "155607.973000", "155647.886000", "155647.889000", "155647.892000", "155647.895000", "155647.898000", "155647.901000", "155647.903000", "155647.906000", "155647.909000", "155647.912000", "155647.915000", "155647.918000", "155647.921000", "155647.923000", "155647.926000", "155647.929000", "155647.932000", "155647.935000", "155647.938000", "155647.941000", "155647.944000", "155647.946000", "155647.949000", "155647.952000", "155647.962000", "155647.965000", "155647.968000", "155647.971000", "155647.974000", "155647.976000", "155647.979000", "155647.982000", "155727.885000", "155727.888000", "155727.891000", "155727.894000", "155727.897000", "155727.899000", "155727.902000", "155727.905000", "155727.908000", "155727.911000", "155727.914000", "155727.917000", "155727.920000", "155727.922000", "155727.925000", "155727.928000", "155727.931000", "155727.934000", "155727.937000", "155727.940000", "155727.943000", "155727.946000", "155727.948000", "155727.951000", "155727.954000", "155727.957000", "155727.960000", "155727.963000", "155727.966000", "155727.969000", "155727.971000", "155807.886000", "155807.889000", "155807.892000", "155807.895000", "155807.898000", "155807.901000", "155807.903000", "155807.906000", "155807.909000", "155807.912000", "155807.915000", "155807.931000", "155807.934000", "155807.937000", "155807.940000", "155807.942000", "155807.945000", "155807.948000", "155807.951000", "155807.954000", "155807.957000", "155807.959000", "155807.962000", "155807.965000", "155807.968000", "155807.971000", "155807.974000", "155807.977000", "155807.980000", "155807.982000", "155807.985000", "155847.886000", "155847.889000", "155847.892000", "155847.895000", "155847.898000", "155847.900000", "155847.903000", "155847.906000", "155847.909000", "155847.912000", "155847.915000", "155847.918000", "155847.921000", "155847.923000", "155847.926000", "155847.929000", "155847.932000", "155847.935000", "155847.938000", "155847.941000", "155847.944000", "155847.946000", "155847.949000", "155847.952000", "155847.955000", "155847.958000", "155847.961000", "155847.963000", "155847.966000", "155847.969000", "155847.972000", "155847.975000", "155927.885000", "155927.888000", "155927.891000", "155927.894000", "155927.897000", "155927.900000", "155927.903000", "155927.906000", "155927.909000", "155927.912000", "155927.915000", "155927.918000", "155927.920000", "155927.923000", "155927.940000", "155927.943000", "155927.946000", "155927.949000", "155927.952000", "155927.955000", "155927.958000", "155927.961000", "155927.963000", "155927.966000", "155927.969000", "155927.972000", "155927.975000", "155927.978000", "155927.981000", "155927.984000", "155927.986000", "160007.885000", "160007.888000", "160007.891000", "160007.894000", "160007.897000", "160007.900000", "160007.903000", "160007.905000", "160007.908000", "160007.911000", "160007.914000", "160007.917000", "160007.920000", "160007.923000", "160007.925000", "160007.928000", "160007.941000", "160007.944000", "160007.947000", "160007.950000", "160007.953000", "160007.956000", "160007.959000", "160007.962000", "160007.965000", "160007.968000", "160007.974000", "160007.977000", "160007.980000", "160007.983000", "160007.986000", "160008.505000"],
      "InstanceNumber": [1, 2, 3, 4, 5, 6, 7, 8, 9, 10, 11, 12, 13, 14, 15, 16, 17, 18, 19, 20, 21, 22, 23, 24, 25, 26, 27, 28, 29, 30, 31, 32, 33, 34, 35, 36, 37, 38, 39, 40, 41, 42, 43, 44, 45, 46, 47, 48, 49, 50, 51, 52, 53, 54, 55, 56, 57, 58, 59, 60, 61, 62, 63, 64, 65, 66, 67, 68, 69, 70, 71, 72, 73, 74, 75, 76, 77, 78, 79, 80, 81, 82, 83, 84, 85, 86, 87, 88, 89, 90, 91, 92, 93, 94, 95, 96, 97, 98, 99, 100, 101, 102, 103, 104, 105, 106, 107, 108, 109, 110, 111, 112, 113, 114, 115, 116, 117, 118, 119, 120, 121, 122, 123, 124, 125, 126, 127, 128, 129, 130, 131, 132, 133, 134, 135, 136, 137, 138, 139, 140, 141, 142, 143, 144, 145, 146, 147, 148, 149, 150, 151, 152, 153, 154, 155, 156, 157, 158, 159, 160, 161, 162, 163, 164, 165, 166, 167, 168, 169, 170, 171, 172, 173, 174, 175, 176, 177, 178, 179, 180, 181, 182, 183, 184, 185, 186, 187, 188, 189, 190, 191, 192, 193, 194, 195, 196, 197, 198, 199, 200, 201, 202, 203, 204, 205, 206, 207, 208, 209, 210, 211, 212, 213, 214, 215, 216, 217, 218, 219, 220, 221, 222, 223, 224, 225, 226, 227, 228, 229, 230, 231, 232, 233, 234, 235, 236, 237, 238, 239, 240, 241, 242, 243, 244, 245, 246, 247, 248, 249, 250, 251, 252, 253, 254, 255, 256, 257, 258, 259, 260, 261, 262, 263, 264, 265, 266, 267, 268, 269, 270, 271, 272, 273, 274, 275, 276, 277, 278, 279, 280, 281, 282, 283, 284, 285, 286, 287, 288, 289, 290, 291, 292, 293, 294, 295, 296, 297, 298, 299, 300, 301, 302, 303, 304, 305, 306, 307, 308, 309, 310, 311, 312, 313, 314, 315, 316, 317, 318, 319, 320, 321, 322, 323, 324, 325, 326, 327, 328, 329, 330, 331, 332, 333, 334, 335, 336, 337, 338, 339, 340, 341, 342, 343, 344, 345, 346, 347, 348, 349, 350, 351, 352, 353, 354, 355, 356, 357, 358, 359, 360, 361, 362, 363, 364, 365, 366, 367, 368, 369, 370, 371, 372, 373],
