{
  "AcquisitionMatrixPE": 108,
  "AcquisitionNumber": 1,
  "AcquisitionTime": "11:14:16.580000",
  "BandwidthPerPixelPhaseEncode": 15.964,
  "BaseResolution": 108,
  "BodyPartExamined": "BRAIN",
  "ConsistencyInfo": "N4_VE11C_LATEST_20160120",
  "ConversionSoftware": "dcm2niix",
  "ConversionSoftwareVersion": "v1.0.20180622 GCC6.3.0",
  "DerivedVendorReportedEchoSpacing": 0.000580009,
  "DeviceSerialNumber": "66054",
  "DwellTime": 2.1e-06,
  "EchoTime": 0.031,
  "EchoTrainLength": 95,
  "EffectiveEchoSpacing": 0.000580009,
  "FlipAngle": 64,
  "ImageOrientationPatientDICOM": [0.988706, 0.144388, 0.0401435, -0.117896, 0.914743, -0.386452],
  "ImageType": [
    "ORIGINAL",
    "PRIMARY",
    "M",
    "ND",
    "MOSAIC"
],
  "InPlanePhaseEncodingDirectionDICOM": "COL",
  "InstitutionAddress": "Chemin_des_Mines_9_Geneve_District_CH_1211",
  "InstitutionName": "Fondation_Campus_Biotech_Geneva",
  "InstitutionalDepartmentName": "Department",
  "MRAcquisitionType": "2D",
  "MagneticFieldStrength": 3,
  "Manufacturer": "Siemens",
  "ManufacturersModelName": "Prisma",
  "Modality": "MR",
  "MultibandAccelerationFactor": 4,
  "PartialFourier": 0.875,
  "PatientPosition": "HFS",
  "PercentPhaseFOV": 100,
  "PhaseEncodingDirection": "j-",
  "PhaseEncodingSteps": 95,
  "PhaseResolution": 1,
  "PixelBandwidth": 2205,
  "ProcedureStepDescription": "J.DRM_Michael",
  "ProtocolName": "Run2_bold_s4_TR1.28",
  "PulseSequenceDetails": "%SiemensSeq%_ep2d_bold",
  "ReceiveCoilActiveElements": "HC1-7;NC1,2",
  "ReceiveCoilName": "HeadNeck_64",
  "ReconMatrixPE": 108,
  "RepetitionTime": 1.28,
  "SAR": 0.0704681,
  "ScanOptions": "PFP_FS",
  "ScanningSequence": "EP",
  "SequenceName": "_epfid2d1_108",
  "SequenceVariant": "SK",
  "SeriesDescription": "Run2_bold_s4_TR1.28",
  "SeriesNumber": 6,
  "ShimSetting": [-1252, -11685, 6458, 548, 162, -221, -53, 58],
  "SliceThickness": 2,
  "SliceTiming": [0.945, 0, 0.63, 0.08, 0.71, 0.1575, 0.7875, 0.2375, 0.8675, 0.395, 1.025, 0.4725, 1.1025, 0.5525, 1.1825, 0.315, 0.945, 0, 0.63, 0.08, 0.71, 0.1575, 0.7875, 0.2375, 0.8675, 0.395, 1.025, 0.4725, 1.1025, 0.5525, 1.1825, 0.315, 0.945, 0, 0.63, 0.08, 0.71, 0.1575, 0.7875, 0.2375, 0.8675, 0.395, 1.025, 0.4725, 1.1025, 0.5525, 1.1825, 0.315, 0.945, 0, 0.63, 0.08, 0.71, 0.1575, 0.7875, 0.2375, 0.8675, 0.395, 1.025, 0.4725, 1.1025, 0.5525, 1.1825, 0.315],
  "SoftwareVersions": "syngo_MR_E11",
  "SpacingBetweenSlices": 2,
  "StationName": "AWP66054",
  "TaskName": "main",
  "TotalReadoutTime": 0.0620609,
  "TxRefAmp": 248.348,
  "dcmmeta_affine": [
    [-1.968258261680603, -0.23470062017440796, 0.18504051864147186, 112.74041748046875],
    [-0.2874397337436676, 1.821016550064087, -0.7547104954719543, -57.46609115600586],
    [0.07991540431976318, 0.7693265676498413, 1.8428707122802734, -95.6504135131836],
    [0.0, 0.0, 0.0, 1.0]
],
  "dcmmeta_reorient_transform": [
    [0.0, -1.0, 0.0, 107.0],
    [1.0, 0.0, 0.0, 0.0],
    [0.0, 0.0, 1.0, 0.0],
    [0.0, 0.0, 0.0, 1.0]
],
  "dcmmeta_shape": [108, 108, 64, 373],
  "dcmmeta_slice_dim": 2,
  "dcmmeta_version": 0.6,
  "global": {
    "const": {
      "AccessionNumber": "",
      "AcquisitionMatrix": [108, 0, 0, 108],
      "AngioFlag": "N",
      "BitsAllocated": 16,
      "BitsStored": 12,
      "BodyPartExamined": "BRAIN",
      "Columns": 864,
      "EchoNumbers": 1,
      "EchoTime": 31.0,
      "EchoTrainLength": 95,
      "FlipAngle": 64.0,
      "HighBit": 11,
      "ImageOrientationPatient": [0.98870648136306, 0.14438832735409, 0.04014355034836, -0.1178961251664, 0.91474315787882, -0.3864524017064],
      "ImagePositionPatient": [-742.91225613018, -934.37913067755, 247.26494087746],
      "ImageType": [
        "ORIGINAL",
        "PRIMARY",
        "M",
        "ND",
        "MOSAIC"
],
      "ImagedNucleus": "1H",
      "ImagingFrequency": 123.257402,
      "InPlanePhaseEncodingDirection": "COL",
      "MRAcquisitionType": "2D",
      "MagneticFieldStrength": 3.0,
      "Manufacturer": "SIEMENS",
      "ManufacturerModelName": "Prisma",
      "Modality": "MR",
      "NumberOfAverages": 1.0,
      "NumberOfPhaseEncodingSteps": 95,
      "PercentPhaseFieldOfView": 100.0,
      "PercentSampling": 100.0,
      "PerformedProcedureStepStartTime": "110109.021000",
      "PhotometricInterpretation": "MONOCHROME2",
      "PixelBandwidth": 2205.0,
      "PixelRepresentation": 0,
      "PixelSpacing": [1.990740776062, 1.990740776062],
      "PositionReferenceIndicator": "",
      "ProtocolName": "Run2_bold_s4_TR1.28",
      "RepetitionTime": 1280.0,
      "Rows": 864,
      "SAR": 0.07046805207619,
      "SamplesPerPixel": 1,
      "ScanOptions": [
        "PFP",
        "FS"
],
      "ScanningSequence": "EP",
      "SequenceName": "*epfid2d1_108",
      "SequenceVariant": "SK",
      "SeriesDescription": "Run2_bold_s4_TR1.28",
      "SeriesNumber": 6,
      "SeriesTime": "111449.797000",
      "SliceLocation": -56.019768518516,
      "SliceThickness": 2.0,
      "SmallestImagePixelValue": 0,
      "SoftwareVersions": "syngo MR E11",
      "SpacingBetweenSlices": 2.0000000530406,
      "SpecificCharacterSet": "ISO_IR 100",
      "StudyID": "1",
      "StudyTime": "110108.840000",
      "TransmitCoilName": "Body",
      "VariableFlipAngleFlag": "N",
      "WindowCenterWidthExplanation": "Algo1",
      "dBdt": 0.0},
    "slices": {}
  },
  "time": {
    "samples": {
      "AcquisitionNumber": [1, 2, 3, 4, 5, 6, 7, 8, 9, 10, 11, 12, 13, 14, 15, 16, 17, 18, 19, 20, 21, 22, 23, 24, 25, 26, 27, 28, 29, 30, 31, 32, 33, 34, 35, 36, 37, 38, 39, 40, 41, 42, 43, 44, 45, 46, 47, 48, 49, 50, 51, 52, 53, 54, 55, 56, 57, 58, 59, 60, 61, 62, 63, 64, 65, 66, 67, 68, 69, 70, 71, 72, 73, 74, 75, 76, 77, 78, 79, 80, 81, 82, 83, 84, 85, 86, 87, 88, 89, 90, 91, 92, 93, 94, 95, 96, 97, 98, 99, 100, 101, 102, 103, 104, 105, 106, 107, 108, 109, 110, 111, 112, 113, 114, 115, 116, 117, 118, 119, 120, 121, 122, 123, 124, 125, 126, 127, 128, 129, 130, 131, 132, 133, 134, 135, 136, 137, 138, 139, 140, 141, 142, 143, 144, 145, 146, 147, 148, 149, 150, 151, 152, 153, 154, 155, 156, 157, 158, 159, 160, 161, 162, 163, 164, 165, 166, 167, 168, 169, 170, 171, 172, 173, 174, 175, 176, 177, 178, 179, 180, 181, 182, 183, 184, 185, 186, 187, 188, 189, 190, 191, 192, 193, 194, 195, 196, 197, 198, 199, 200, 201, 202, 203, 204, 205, 206, 207, 208, 209, 210, 211, 212, 213, 214, 215, 216, 217, 218, 219, 220, 221, 222, 223, 224, 225, 226, 227, 228, 229, 230, 231, 232, 233, 234, 235, 236, 237, 238, 239, 240, 241, 242, 243, 244, 245, 246, 247, 248, 249, 250, 251, 252, 253, 254, 255, 256, 257, 258, 259, 260, 261, 262, 263, 264, 265, 266, 267, 268, 269, 270, 271, 272, 273, 274, 275, 276, 277, 278, 279, 280, 281, 282, 283, 284, 285, 286, 287, 288, 289, 290, 291, 292, 293, 294, 295, 296, 297, 298, 299, 300, 301, 302, 303, 304, 305, 306, 307, 308, 309, 310, 311, 312, 313, 314, 315, 316, 317, 318, 319, 320, 321, 322, 323, 324, 325, 326, 327, 328, 329, 330, 331, 332, 333, 334, 335, 336, 337, 338, 339, 340, 341, 342, 343, 344, 345, 346, 347, 348, 349, 350, 351, 352, 353, 354, 355, 356, 357, 358, 359, 360, 361, 362, 363, 364, 365, 366, 367, 368, 369, 370, 371, 372, 373],
      "AcquisitionTime": ["111416.580000", "111417.860000", "111419.140000", "111420.420000", "111421.700000", "111422.980000", "111424.260000", "111425.540000", "111426.820000", "111428.100000", "111429.380000", "111430.660000", "111431.940000", "111433.220000", "111434.500000", "111435.780000", "111437.060000", "111438.340000", "111439.620000", "111440.900000", "111442.180000", "111443.460000", "111444.740000", "111446.020000", "111447.300000", "111448.580000", "111449.860000", "111451.140000", "111452.420000", "111453.700000", "111454.980000", "111456.260000", "111457.540000", "111458.820000", "111500.100000", "111501.380000", "111502.660000", "111503.940000", "111505.220000", "111506.500000", "111507.780000", "111509.060000", "111510.340000", "111511.620000", "111512.900000", "111514.180000", "111515.460000", "111516.740000", "111518.020000", "111519.300000", "111520.580000", "111521.860000", "111523.140000", "111524.420000", "111525.700000", "111526.980000", "111528.260000", "111529.540000", "111530.820000", "111532.100000", "111533.380000", "111534.660000", "111535.940000", "111537.220000", "111538.500000", "111539.780000", "111541.060000", "111542.340000", "111543.620000", "111544.900000", "111546.180000", "111547.460000", "111548.740000", "111550.020000", "111551.300000", "111552.580000", "111553.860000", "111555.140000", "111556.420000", "111557.700000", "111558.980000", "111600.260000", "111601.540000", "111602.820000", "111604.100000", "111605.380000", "111606.660000", "111607.940000", "111609.220000", "111610.500000", "111611.780000", "111613.060000", "111614.340000", "111615.620000", "111616.900000", "111618.180000", "111619.460000", "111620.740000", "111622.020000", "111623.300000", "111624.580000", "111625.860000", "111627.140000", "111628.420000", "111629.700000", "111630.980000", "111632.260000", "111633.540000", "111634.820000", "111636.100000", "111637.380000", "111638.660000", "111639.940000", "111641.220000", "111642.500000", "111643.780000", "111645.060000", "111646.340000", "111647.620000", "111648.900000", "111650.180000", "111651.460000", "111652.740000", "111654.020000", "111655.300000", "111656.580000", "111657.860000", "111659.140000", "111700.420000", "111701.700000", "111702.980000", "111704.260000", "111705.540000", "111706.820000", "111708.100000", "111709.380000", "111710.660000", "111711.940000", "111713.220000", "111714.500000", "111715.780000", "111717.060000", "111718.340000", "111719.620000", "111720.900000", "111722.180000", "111723.460000", "111724.740000", "111726.020000", "111727.300000", "111728.580000", "111729.860000", "111731.140000", "111732.420000", "111733.700000", "111734.980000", "111736.260000", "111737.540000", "111738.820000", "111740.100000", "111741.380000", "111742.660000", "111743.940000", "111745.220000", "111746.500000", "111747.780000", "111749.060000", "111750.340000", "111751.620000", "111752.900000", "111754.180000", "111755.460000", "111756.740000", "111758.020000", "111759.300000", "111800.580000", "111801.860000", "111803.140000", "111804.420000", "111805.700000", "111806.980000", "111808.260000", "111809.540000", "111810.820000", "111812.100000", "111813.380000", "111814.660000", "111815.940000", "111817.220000", "111818.500000", "111819.780000", "111821.060000", "111822.340000", "111823.620000", "111824.900000", "111826.180000", "111827.460000", "111828.740000", "111830.020000", "111831.300000", "111832.580000", "111833.860000", "111835.140000", "111836.420000", "111837.700000", "111838.980000", "111840.260000", "111841.540000", "111842.820000", "111844.100000", "111845.380000", "111846.660000", "111847.940000", "111849.220000", "111850.500000", "111851.780000", "111853.060000", "111854.340000", "111855.620000", "111856.900000", "111858.180000", "111859.460000", "111900.740000", "111902.020000", "111903.300000", "111904.580000", "111905.860000", "111907.140000", "111908.420000", "111909.700000", "111910.980000", "111912.260000", "111913.540000", "111914.820000", "111916.100000", "111917.380000", "111918.660000", "111919.940000", "111921.220000", "111922.500000", "111923.780000", "111925.060000", "111926.340000", "111927.620000", "111928.900000", "111930.180000", "111931.460000", "111932.740000", "111934.020000", "111935.300000", "111936.580000", "111937.860000", "111939.140000", "111940.420000", "111941.700000", "111942.980000", "111944.260000", "111945.540000", "111946.820000", "111948.100000", "111949.380000", "111950.660000", "111951.940000", "111953.220000", "111954.500000", "111955.780000", "111957.060000", "111958.340000", "111959.620000", "112000.900000", "112002.180000", "112003.460000", "112004.740000", "112006.020000", "112007.300000", "112008.580000", "112009.860000", "112011.140000", "112012.420000", "112013.700000", "112014.980000", "112016.260000", "112017.540000", "112018.820000", "112020.100000", "112021.380000", "112022.660000", "112023.940000", "112025.220000", "112026.500000", "112027.780000", "112029.060000", "112030.340000", "112031.620000", "112032.900000", "112034.180000", "112035.460000", "112036.740000", "112038.020000", "112039.300000", "112040.580000", "112041.860000", "112043.140000", "112044.420000", "112045.700000", "112046.980000", "112048.260000", "112049.540000", "112050.820000", "112052.100000", "112053.380000", "112054.660000", "112055.940000", "112057.220000", "112058.500000", "112059.780000", "112101.060000", "112102.340000", "112103.620000", "112104.900000", "112106.180000", "112107.460000", "112108.740000", "112110.020000", "112111.300000", "112112.580000", "112113.860000", "112115.140000", "112116.420000", "112117.700000", "112118.980000", "112120.260000", "112121.540000", "112122.820000", "112124.100000", "112125.380000", "112126.660000", "112127.940000", "112129.220000", "112130.500000", "112131.780000", "112133.060000", "112134.340000", "112135.620000", "112136.900000", "112138.180000", "112139.460000", "112140.740000", "112142.020000", "112143.300000", "112144.580000", "112145.860000", "112147.140000", "112148.420000", "112149.700000", "112150.980000", "112152.260000", "112153.540000", "112154.820000", "112156.100000", "112157.380000", "112158.660000", "112159.940000", "112201.220000", "112202.500000", "112203.780000", "112205.060000", "112206.340000", "112207.620000", "112208.900000", "112210.180000", "112211.460000", "112212.740000"],
      "ContentTime": ["111449.800000", "111449.804000", "111449.817000", "111449.819000", "111449.822000", "111449.825000", "111449.828000", "111449.831000", "111449.837000", "111449.840000", "111449.843000", "111449.846000", "111449.849000", "111449.852000", "111449.864000", "111449.867000", "111449.870000", "111449.872000", "111449.875000", "111449.878000", "111449.881000", "111449.884000", "111449.887000", "111449.890000", "111449.893000", "111529.785000", "111529.788000", "111529.791000", "111529.794000", "111529.796000", "111529.799000", "111529.802000", "111529.805000", "111529.808000", "111529.811000", "111529.814000", "111529.817000", "111529.820000", "111529.823000", "111529.825000", "111529.828000", "111529.831000", "111529.834000", "111529.839000", "111529.842000", "111529.845000", "111529.848000", "111529.851000", "111529.854000", "111529.856000", "111529.859000", "111529.862000", "111529.865000", "111529.868000", "111529.871000", "111529.874000", "111529.877000", "111609.784000", "111609.787000", "111609.790000", "111609.793000", "111609.796000", "111609.799000", "111609.802000", "111609.805000", "111609.808000", "111609.811000", "111609.814000", "111609.817000", "111609.820000", "111609.823000", "111609.826000", "111609.829000", "111609.832000", "111609.835000", "111609.837000", "111609.841000", "111609.843000", "111609.846000", "111609.849000", "111609.852000", "111609.866000", "111609.869000", "111609.872000", "111609.875000", "111609.878000", "111609.880000", "111609.883000", "111649.785000", "111649.788000", "111649.791000", "111649.794000", "111649.797000", "111649.800000", "111649.802000", "111649.805000", "111649.808000", "111649.811000", "111649.814000", "111649.817000", "111649.820000", "111649.823000", "111649.826000", "111649.829000", "111649.832000", "111649.835000", "111649.838000", "111649.840000", "111649.843000", "111649.846000", "111649.849000", "111649.852000", "111649.863000", "111649.866000", "111649.868000", "111649.872000", "111649.874000", "111649.877000", "111649.880000", "111709.785000", "111709.788000", "111709.791000", "111709.794000", "111709.801000", "111709.804000", "111709.813000", "111709.816000", "111709.819000", "111709.822000", "111709.826000", "111709.829000", "111709.832000", "111709.835000", "111709.838000", "111709.841000", "111749.785000", "111749.788000", "111749.791000", "111749.794000", "111749.797000", "111749.800000", "111749.803000", "111749.806000", "111749.809000", "111749.812000", "111749.814000", "111749.817000", "111749.820000", "111749.823000", "111749.826000", "111749.829000", "111749.832000", "111749.835000", "111749.838000", "111749.841000", "111749.844000", "111749.846000", "111749.849000", "111749.852000", "111749.855000", "111749.858000", "111749.861000", "111749.863000", "111749.866000", "111749.869000", "111749.872000", "111829.784000", "111829.787000", "111829.790000", "111829.793000", "111829.796000", "111829.799000", "111829.802000", "111829.805000", "111829.808000", "111829.811000", "111829.814000", "111829.817000", "111829.820000", "111829.823000", "111829.826000", "111829.829000", "111829.831000", "111829.835000", "111829.837000", "111829.840000", "111829.843000", "111829.846000", "111829.849000", "111829.852000", "111829.855000", "111829.870000", "111829.873000", "111829.876000", "111829.879000", "111829.882000", "111829.885000", "111909.785000", "111909.788000", "111909.791000", "111909.794000", "111909.797000", "111909.800000", "111909.803000", "111909.806000", "111909.808000", "111909.811000", "111909.814000", "111909.817000", "111909.820000", "111909.823000", "111909.826000", "111909.829000", "111909.831000", "111909.834000", "111909.837000", "111909.840000", "111909.843000", "111909.846000", "111909.849000", "111909.852000", "111909.857000", "111909.863000", "111909.868000", "111909.871000", "111909.874000", "111909.877000", "111909.880000", "111949.785000", "111949.788000", "111949.791000", "111949.794000", "111949.797000", "111949.799000", "111949.802000", "111949.805000", "111949.808000", "111949.811000", "111949.814000", "111949.817000", "111949.820000", "111949.823000", "111949.826000", "111949.829000", "111949.832000", "111949.834000", "111949.837000", "111949.840000", "111949.843000", "111949.846000", "111949.849000", "111949.852000", "111949.854000", "111949.857000", "111949.861000", "111949.864000", "111949.866000", "111949.869000", "111949.872000", "111949.875000", "112029.784000", "112029.787000", "112029.790000", "112029.793000", "112029.796000", "112029.799000", "112029.802000", "112029.805000", "112029.808000", "112029.811000", "112029.814000", "112029.817000", "112029.819000", "112029.822000", "112029.825000", "112029.828000", "112029.831000", "112029.834000", "112029.837000", "112029.840000", "112029.843000", "112029.846000", "112029.848000", "112029.851000", "112029.854000", "112029.857000", "112029.860000", "112029.863000", "112029.866000", "112029.868000", "112029.871000", "112109.785000", "112109.788000", "112109.791000", "112109.794000", "112109.797000", "112109.800000", "112109.803000", "112109.806000", "112109.808000", "112109.811000", "112109.814000", "112109.817000", "112109.820000", "112109.831000", "112109.833000", "112109.836000", "112109.839000", "112109.842000", "112109.845000", "112109.848000", "112109.851000", "112109.854000", "112109.857000", "112109.860000", "112109.863000", "112109.866000", "112109.869000", "112109.872000", "112109.875000", "112109.878000", "112109.881000", "112149.785000", "112149.788000", "112149.791000", "112149.794000", "112149.796000", "112149.799000", "112149.802000", "112149.805000", "112149.808000", "112149.811000", "112149.814000", "112149.817000", "112149.820000", "112149.823000", "112149.826000", "112149.829000", "112149.831000", "112149.834000", "112149.837000", "112149.841000", "112149.846000", "112149.849000", "112149.852000", "112149.855000", "112149.858000", "112149.861000", "112149.864000", "112149.885000", "112149.888000", "112149.891000", "112149.894000", "112214.209000", "112214.212000", "112214.216000", "112214.218000", "112214.221000", "112214.224000", "112214.227000", "112214.230000", "112214.233000", "112214.236000", "112214.239000", "112214.242000", "112214.245000", "112214.248000", "112214.251000", "112214.254000", "112214.257000", "112214.272000", "112214.275000", "112214.277000"],
      "InstanceCreationTime": ["111449.800000", "111449.804000", "111449.817000", "111449.819000", "111449.822000", "111449.825000", "111449.828000", "111449.831000", "111449.837000", "111449.840000", "111449.843000", "111449.846000", "111449.849000", "111449.852000", "111449.864000", "111449.867000", "111449.870000", "111449.872000", "111449.875000", "111449.878000", "111449.881000", "111449.884000", "111449.887000", "111449.890000", "111449.893000", "111529.785000", "111529.788000", "111529.791000", "111529.794000", "111529.796000", "111529.799000", "111529.802000", "111529.805000", "111529.808000", "111529.811000", "111529.814000", "111529.817000", "111529.820000", "111529.823000", "111529.825000", "111529.828000", "111529.831000", "111529.834000", "111529.839000", "111529.842000", "111529.845000", "111529.848000", "111529.851000", "111529.854000", "111529.856000", "111529.859000", "111529.862000", "111529.865000", "111529.868000", "111529.871000", "111529.874000", "111529.877000", "111609.784000", "111609.787000", "111609.790000", "111609.793000", "111609.796000", "111609.799000", "111609.802000", "111609.805000", "111609.808000", "111609.811000", "111609.814000", "111609.817000", "111609.820000", "111609.823000", "111609.826000", "111609.829000", "111609.832000", "111609.835000", "111609.837000", "111609.841000", "111609.843000", "111609.846000", "111609.849000", "111609.852000", "111609.866000", "111609.869000", "111609.872000", "111609.875000", "111609.878000", "111609.880000", "111609.883000", "111649.785000", "111649.788000", "111649.791000", "111649.794000", "111649.797000", "111649.800000", "111649.802000", "111649.805000", "111649.808000", "111649.811000", "111649.814000", "111649.817000", "111649.820000", "111649.823000", "111649.826000", "111649.829000", "111649.832000", "111649.835000", "111649.838000", "111649.840000", "111649.843000", "111649.846000", "111649.849000", "111649.852000", "111649.863000", "111649.866000", "111649.868000", "111649.872000", "111649.874000", "111649.877000", "111649.880000", "111709.785000", "111709.788000", "111709.791000", "111709.794000", "111709.801000", "111709.804000", "111709.813000", "111709.816000", "111709.819000", "111709.822000", "111709.826000", "111709.829000", "111709.832000", "111709.835000", "111709.838000", "111709.841000", "111749.785000", "111749.788000", "111749.791000", "111749.794000", "111749.797000", "111749.800000", "111749.803000", "111749.806000", "111749.809000", "111749.812000", "111749.814000", "111749.817000", "111749.820000", "111749.823000", "111749.826000", "111749.829000", "111749.832000", "111749.835000", "111749.838000", "111749.841000", "111749.844000", "111749.846000", "111749.849000", "111749.852000", "111749.855000", "111749.858000", "111749.861000", "111749.863000", "111749.866000", "111749.869000", "111749.872000", "111829.784000", "111829.787000", "111829.790000", "111829.793000", "111829.796000", "111829.799000", "111829.802000", "111829.805000", "111829.808000", "111829.811000", "111829.814000", "111829.817000", "111829.820000", "111829.823000", "111829.826000", "111829.829000", "111829.831000", "111829.835000", "111829.837000", "111829.840000", "111829.843000", "111829.846000", "111829.849000", "111829.852000", "111829.855000", "111829.870000", "111829.873000", "111829.876000", "111829.879000", "111829.882000", "111829.885000", "111909.785000", "111909.788000", "111909.791000", "111909.794000", "111909.797000", "111909.800000", "111909.803000", "111909.806000", "111909.808000", "111909.811000", "111909.814000", "111909.817000", "111909.820000", "111909.823000", "111909.826000", "111909.829000", "111909.831000", "111909.834000", "111909.837000", "111909.840000", "111909.843000", "111909.846000", "111909.849000", "111909.852000", "111909.857000", "111909.863000", "111909.868000", "111909.871000", "111909.874000", "111909.877000", "111909.880000", "111949.785000", "111949.788000", "111949.791000", "111949.794000", "111949.797000", "111949.799000", "111949.802000", "111949.805000", "111949.808000", "111949.811000", "111949.814000", "111949.817000", "111949.820000", "111949.823000", "111949.826000", "111949.829000", "111949.832000", "111949.834000", "111949.837000", "111949.840000", "111949.843000", "111949.846000", "111949.849000", "111949.852000", "111949.854000", "111949.857000", "111949.861000", "111949.864000", "111949.866000", "111949.869000", "111949.872000", "111949.875000", "112029.784000", "112029.787000", "112029.790000", "112029.793000", "112029.796000", "112029.799000", "112029.802000", "112029.805000", "112029.808000", "112029.811000", "112029.814000", "112029.817000", "112029.819000", "112029.822000", "112029.825000", "112029.828000", "112029.831000", "112029.834000", "112029.837000", "112029.840000", "112029.843000", "112029.846000", "112029.848000", "112029.851000", "112029.854000", "112029.857000", "112029.860000", "112029.863000", "112029.866000", "112029.868000", "112029.871000", "112109.785000", "112109.788000", "112109.791000", "112109.794000", "112109.797000", "112109.800000", "112109.803000", "112109.806000", "112109.808000", "112109.811000", "112109.814000", "112109.817000", "112109.820000", "112109.831000", "112109.833000", "112109.836000", "112109.839000", "112109.842000", "112109.845000", "112109.848000", "112109.851000", "112109.854000", "112109.857000", "112109.860000", "112109.863000", "112109.866000", "112109.869000", "112109.872000", "112109.875000", "112109.878000", "112109.881000", "112149.785000", "112149.788000", "112149.791000", "112149.794000", "112149.796000", "112149.799000", "112149.802000", "112149.805000", "112149.808000", "112149.811000", "112149.814000", "112149.817000", "112149.820000", "112149.823000", "112149.826000", "112149.829000", "112149.831000", "112149.834000", "112149.837000", "112149.841000", "112149.846000", "112149.849000", "112149.852000", "112149.855000", "112149.858000", "112149.861000", "112149.864000", "112149.885000", "112149.888000", "112149.891000", "112149.894000", "112214.209000", "112214.212000", "112214.216000", "112214.218000", "112214.221000", "112214.224000", "112214.227000", "112214.230000", "112214.233000", "112214.236000", "112214.239000", "112214.242000", "112214.245000", "112214.248000", "112214.251000", "112214.254000", "112214.257000", "112214.272000", "112214.275000", "112214.277000"],
      "InstanceNumber": [1, 2, 3, 4, 5, 6, 7, 8, 9, 10, 11, 12, 13, 14, 15, 16, 17, 18, 19, 20, 21, 22, 23, 24, 25, 26, 27, 28, 29, 30, 31, 32, 33, 34, 35, 36, 37, 38, 39, 40, 41, 42, 43, 44, 45, 46, 47, 48, 49, 50, 51, 52, 53, 54, 55, 56, 57, 58, 59, 60, 61, 62, 63, 64, 65, 66, 67, 68, 69, 70, 71, 72, 73, 74, 75, 76, 77, 78, 79, 80, 81, 82, 83, 84, 85, 86, 87, 88, 89, 90, 91, 92, 93, 94, 95, 96, 97, 98, 99, 100, 101, 102, 103, 104, 105, 106, 107, 108, 109, 110, 111, 112, 113, 114, 115, 116, 117, 118, 119, 120, 121, 122, 123, 124, 125, 126, 127, 128, 129, 130, 131, 132, 133, 134, 135, 136, 137, 138, 139, 140, 141, 142, 143, 144, 145, 146, 147, 148, 149, 150, 151, 152, 153, 154, 155, 156, 157, 158, 159, 160, 161, 162, 163, 164, 165, 166, 167, 168, 169, 170, 171, 172, 173, 174, 175, 176, 177, 178, 179, 180, 181, 182, 183, 184, 185, 186, 187, 188, 189, 190, 191, 192, 193, 194, 195, 196, 197, 198, 199, 200, 201, 202, 203, 204, 205, 206, 207, 208, 209, 210, 211, 212, 213, 214, 215, 216, 217, 218, 219, 220, 221, 222, 223, 224, 225, 226, 227, 228, 229, 230, 231, 232, 233, 234, 235, 236, 237, 238, 239, 240, 241, 242, 243, 244, 245, 246, 247, 248, 249, 250, 251, 252, 253, 254, 255, 256, 257, 258, 259, 260, 261, 262, 263, 264, 265, 266, 267, 268, 269, 270, 271, 272, 273, 274, 275, 276, 277, 278, 279, 280, 281, 282, 283, 284, 285, 286, 287, 288, 289, 290, 291, 292, 293, 294, 295, 296, 297, 298, 299, 300, 301, 302, 303, 304, 305, 306, 307, 308, 309, 310, 311, 312, 313, 314, 315, 316, 317, 318, 319, 320, 321, 322, 323, 324, 325, 326, 327, 328, 329, 330, 331, 332, 333, 334, 335, 336, 337, 338, 339, 340, 341, 342, 343, 344, 345, 346, 347, 348, 349, 350, 351, 352, 353, 354, 355, 356, 357, 358, 359, 360, 361, 362, 363, 364, 365, 366, 367, 368, 369, 370, 371, 372, 373],
