{
  "AcquisitionMatrixPE": 108,
  "AcquisitionNumber": 1,
  "AcquisitionTime": "11:57:42.770000",
  "BandwidthPerPixelPhaseEncode": 15.964,
  "BaseResolution": 108,
  "BodyPartExamined": "BRAIN",
  "ConsistencyInfo": "N4_VE11C_LATEST_20160120",
  "ConversionSoftware": "dcm2niix",
  "ConversionSoftwareVersion": "v1.0.20180622 GCC6.3.0",
  "DerivedVendorReportedEchoSpacing": 0.000580009,
  "DeviceSerialNumber": "66054",
  "DwellTime": 2.1e-06,
  "EchoTime": 0.031,
  "EchoTrainLength": 95,
  "EffectiveEchoSpacing": 0.000580009,
  "FlipAngle": 64,
  "ImageOrientationPatientDICOM": [0.99884, 0.0369958, 0.0308262, -0.0209227, 0.90997, -0.414147],
  "ImageType": [
    "ORIGINAL",
    "PRIMARY",
    "M",
    "ND",
    "MOSAIC"
],
  "InPlanePhaseEncodingDirectionDICOM": "COL",
  "InstitutionAddress": "Chemin_des_Mines_9_Geneve_District_CH_1211",
  "InstitutionName": "Fondation_Campus_Biotech_Geneva",
  "InstitutionalDepartmentName": "Department",
  "MRAcquisitionType": "2D",
  "MagneticFieldStrength": 3,
  "Manufacturer": "Siemens",
  "ManufacturersModelName": "Prisma",
  "Modality": "MR",
  "MultibandAccelerationFactor": 4,
  "PartialFourier": 0.875,
  "PatientPosition": "HFS",
  "PercentPhaseFOV": 100,
  "PhaseEncodingDirection": "j-",
  "PhaseEncodingSteps": 95,
  "PhaseResolution": 1,
  "PixelBandwidth": 2205,
  "ProcedureStepDescription": "J.DRM_Michael",
  "ProtocolName": "Run4_bold_s4_TR1.28",
  "PulseSequenceDetails": "%SiemensSeq%_ep2d_bold",
  "ReceiveCoilActiveElements": "HC1-7;NC1,2",
  "ReceiveCoilName": "HeadNeck_64",
  "ReconMatrixPE": 108,
  "RepetitionTime": 1.28,
  "SAR": 0.0740349,
  "ScanOptions": "PFP_FS",
  "ScanningSequence": "EP",
  "SequenceName": "_epfid2d1_108",
  "SequenceVariant": "SK",
  "SeriesDescription": "Run4_bold_s4_TR1.28",
  "SeriesNumber": 9,
  "ShimSetting": [-1244, -11664, 6445, 611, 127, 47, 123, 70],
  "SliceThickness": 2,
  "SliceTiming": [0.945, 0, 0.63, 0.0775, 0.7075, 0.1575, 0.7875, 0.235, 0.865, 0.3925, 1.0225, 0.4725, 1.1025, 0.55, 1.18, 0.315, 0.945, 0, 0.63, 0.0775, 0.7075, 0.1575, 0.7875, 0.235, 0.865, 0.3925, 1.0225, 0.4725, 1.1025, 0.55, 1.18, 0.315, 0.945, 0, 0.63, 0.0775, 0.7075, 0.1575, 0.7875, 0.235, 0.865, 0.3925, 1.0225, 0.4725, 1.1025, 0.55, 1.18, 0.315, 0.945, 0, 0.63, 0.0775, 0.7075, 0.1575, 0.7875, 0.235, 0.865, 0.3925, 1.0225, 0.4725, 1.1025, 0.55, 1.18, 0.315],
  "SoftwareVersions": "syngo_MR_E11",
  "SpacingBetweenSlices": 2,
  "StationName": "AWP66054",
  "TaskName": "main",
  "TotalReadoutTime": 0.0620609,
  "TxRefAmp": 274.915,
  "dcmmeta_affine": [
    [-1.9884312152862549, -0.041651759296655655, 0.08674513548612595, 105.445068359375],
    [-0.07364898920059204, 1.8115137815475464, -0.826042115688324, -65.7801742553711],
    [0.06136695295572281, 0.8244583606719971, 1.8193761110305786, -93.45880126953125],
    [0.0, 0.0, 0.0, 1.0]
],
  "dcmmeta_reorient_transform": [
    [0.0, -1.0, 0.0, 107.0],
    [1.0, 0.0, 0.0, 0.0],
    [0.0, 0.0, 1.0, 0.0],
    [0.0, 0.0, 0.0, 1.0]
],
  "dcmmeta_shape": [108, 108, 64, 373],
  "dcmmeta_slice_dim": 2,
  "dcmmeta_version": 0.6,
  "global": {
    "const": {
      "AccessionNumber": "",
      "AcquisitionMatrix": [108, 0, 0, 108],
      "AngioFlag": "N",
      "BitsAllocated": 16,
      "BitsStored": 12,
      "BodyPartExamined": "BRAIN",
      "Columns": 864,
      "EchoNumbers": 1,
      "EchoTime": 31.0,
      "EchoTrainLength": 95,
      "FlipAngle": 64.0,
      "HighBit": 11,
      "ImageOrientationPatient": [0.99883985658735, 0.0369957691015, 0.03082618953337, -0.0209227441838, 0.90996972521468, -0.4141465175135],
      "ImagePositionPatient": [-836.87097381073, -840.64335507965, 283.20679177542],
      "ImageType": [
        "ORIGINAL",
        "PRIMARY",
        "M",
        "ND",
        "MOSAIC"
],
      "ImagedNucleus": "1H",
      "ImagingFrequency": 123.257399,
      "InPlanePhaseEncodingDirection": "COL",
      "MRAcquisitionType": "2D",
      "MagneticFieldStrength": 3.0,
      "Manufacturer": "SIEMENS",
      "ManufacturerModelName": "Prisma",
      "Modality": "MR",
      "NumberOfAverages": 1.0,
      "NumberOfPhaseEncodingSteps": 95,
      "PercentPhaseFieldOfView": 100.0,
      "PercentSampling": 100.0,
      "PerformedProcedureStepStartTime": "110853.972000",
      "PhotometricInterpretation": "MONOCHROME2",
      "PixelBandwidth": 2205.0,
      "PixelRepresentation": 0,
      "PixelSpacing": [1.990740776062, 1.990740776062],
      "PositionReferenceIndicator": "",
      "ProtocolName": "Run4_bold_s4_TR1.28",
      "RepetitionTime": 1280.0,
      "Rows": 864,
      "SAR": 0.07403487852588,
      "SamplesPerPixel": 1,
      "ScanOptions": [
        "PFP",
        "FS"
],
      "ScanningSequence": "EP",
      "SequenceName": "*epfid2d1_108",
      "SequenceVariant": "SK",
      "SeriesDescription": "Run4_bold_s4_TR1.28",
      "SeriesNumber": 9,
      "SeriesTime": "115827.009000",
      "SliceLocation": -53.276339334504,
      "SliceThickness": 2.0,
      "SmallestImagePixelValue": 0,
      "SoftwareVersions": "syngo MR E11",
      "SpacingBetweenSlices": 1.9999999297645,
      "SpecificCharacterSet": "ISO_IR 100",
      "StudyID": "1",
      "StudyTime": "110853.903000",
      "TransmitCoilName": "Body",
      "VariableFlipAngleFlag": "N",
      "WindowCenterWidthExplanation": "Algo1",
      "dBdt": 0.0},
    "slices": {}
  },
  "time": {
    "samples": {
      "AcquisitionNumber": [1, 2, 3, 4, 5, 6, 7, 8, 9, 10, 11, 12, 13, 14, 15, 16, 17, 18, 19, 20, 21, 22, 23, 24, 25, 26, 27, 28, 29, 30, 31, 32, 33, 34, 35, 36, 37, 38, 39, 40, 41, 42, 43, 44, 45, 46, 47, 48, 49, 50, 51, 52, 53, 54, 55, 56, 57, 58, 59, 60, 61, 62, 63, 64, 65, 66, 67, 68, 69, 70, 71, 72, 73, 74, 75, 76, 77, 78, 79, 80, 81, 82, 83, 84, 85, 86, 87, 88, 89, 90, 91, 92, 93, 94, 95, 96, 97, 98, 99, 100, 101, 102, 103, 104, 105, 106, 107, 108, 109, 110, 111, 112, 113, 114, 115, 116, 117, 118, 119, 120, 121, 122, 123, 124, 125, 126, 127, 128, 129, 130, 131, 132, 133, 134, 135, 136, 137, 138, 139, 140, 141, 142, 143, 144, 145, 146, 147, 148, 149, 150, 151, 152, 153, 154, 155, 156, 157, 158, 159, 160, 161, 162, 163, 164, 165, 166, 167, 168, 169, 170, 171, 172, 173, 174, 175, 176, 177, 178, 179, 180, 181, 182, 183, 184, 185, 186, 187, 188, 189, 190, 191, 192, 193, 194, 195, 196, 197, 198, 199, 200, 201, 202, 203, 204, 205, 206, 207, 208, 209, 210, 211, 212, 213, 214, 215, 216, 217, 218, 219, 220, 221, 222, 223, 224, 225, 226, 227, 228, 229, 230, 231, 232, 233, 234, 235, 236, 237, 238, 239, 240, 241, 242, 243, 244, 245, 246, 247, 248, 249, 250, 251, 252, 253, 254, 255, 256, 257, 258, 259, 260, 261, 262, 263, 264, 265, 266, 267, 268, 269, 270, 271, 272, 273, 274, 275, 276, 277, 278, 279, 280, 281, 282, 283, 284, 285, 286, 287, 288, 289, 290, 291, 292, 293, 294, 295, 296, 297, 298, 299, 300, 301, 302, 303, 304, 305, 306, 307, 308, 309, 310, 311, 312, 313, 314, 315, 316, 317, 318, 319, 320, 321, 322, 323, 324, 325, 326, 327, 328, 329, 330, 331, 332, 333, 334, 335, 336, 337, 338, 339, 340, 341, 342, 343, 344, 345, 346, 347, 348, 349, 350, 351, 352, 353, 354, 355, 356, 357, 358, 359, 360, 361, 362, 363, 364, 365, 366, 367, 368, 369, 370, 371, 372, 373],
      "AcquisitionTime": ["115742.770000", "115744.050000", "115745.330000", "115746.610000", "115747.890000", "115749.170000", "115750.450000", "115751.730000", "115753.010000", "115754.290000", "115755.570000", "115756.850000", "115758.130000", "115759.410000", "115800.690000", "115801.970000", "115803.250000", "115804.530000", "115805.810000", "115807.090000", "115808.370000", "115809.650000", "115810.930000", "115812.210000", "115813.490000", "115814.770000", "115816.050000", "115817.330000", "115818.610000", "115819.890000", "115821.170000", "115822.450000", "115823.730000", "115825.010000", "115826.290000", "115827.570000", "115828.850000", "115830.130000", "115831.410000", "115832.690000", "115833.970000", "115835.250000", "115836.530000", "115837.810000", "115839.090000", "115840.370000", "115841.650000", "115842.930000", "115844.210000", "115845.490000", "115846.770000", "115848.050000", "115849.330000", "115850.610000", "115851.890000", "115853.170000", "115854.450000", "115855.730000", "115857.010000", "115858.290000", "115859.570000", "115900.850000", "115902.130000", "115903.410000", "115904.690000", "115905.970000", "115907.250000", "115908.530000", "115909.810000", "115911.090000", "115912.370000", "115913.650000", "115914.930000", "115916.210000", "115917.490000", "115918.770000", "115920.050000", "115921.330000", "115922.610000", "115923.890000", "115925.170000", "115926.450000", "115927.730000", "115929.010000", "115930.290000", "115931.570000", "115932.850000", "115934.130000", "115935.410000", "115936.690000", "115937.970000", "115939.250000", "115940.530000", "115941.810000", "115943.090000", "115944.370000", "115945.650000", "115946.930000", "115948.210000", "115949.490000", "115950.770000", "115952.050000", "115953.330000", "115954.610000", "115955.890000", "115957.170000", "115958.450000", "115959.730000", "120001.010000", "120002.290000", "120003.570000", "120004.850000", "120006.130000", "120007.410000", "120008.690000", "120009.970000", "120011.250000", "120012.530000", "120013.810000", "120015.090000", "120016.370000", "120017.650000", "120018.930000", "120020.210000", "120021.490000", "120022.770000", "120024.050000", "120025.330000", "120026.610000", "120027.890000", "120029.170000", "120030.450000", "120031.730000", "120033.010000", "120034.290000", "120035.570000", "120036.850000", "120038.130000", "120039.410000", "120040.690000", "120041.970000", "120043.250000", "120044.530000", "120045.810000", "120047.090000", "120048.370000", "120049.650000", "120050.930000", "120052.210000", "120053.490000", "120054.770000", "120056.050000", "120057.330000", "120058.610000", "120059.890000", "120101.170000", "120102.450000", "120103.730000", "120105.010000", "120106.290000", "120107.570000", "120108.850000", "120110.130000", "120111.410000", "120112.690000", "120113.970000", "120115.250000", "120116.530000", "120117.810000", "120119.090000", "120120.370000", "120121.650000", "120122.930000", "120124.210000", "120125.490000", "120126.770000", "120128.050000", "120129.330000", "120130.610000", "120131.890000", "120133.170000", "120134.450000", "120135.730000", "120137.010000", "120138.290000", "120139.570000", "120140.850000", "120142.130000", "120143.410000", "120144.690000", "120145.970000", "120147.250000", "120148.530000", "120149.810000", "120151.090000", "120152.370000", "120153.650000", "120154.930000", "120156.210000", "120157.490000", "120158.770000", "120200.050000", "120201.330000", "120202.610000", "120203.890000", "120205.170000", "120206.450000", "120207.730000", "120209.010000", "120210.290000", "120211.570000", "120212.850000", "120214.130000", "120215.410000", "120216.690000", "120217.970000", "120219.250000", "120220.530000", "120221.810000", "120223.090000", "120224.370000", "120225.650000", "120226.930000", "120228.210000", "120229.490000", "120230.770000", "120232.050000", "120233.330000", "120234.610000", "120235.890000", "120237.170000", "120238.450000", "120239.730000", "120241.010000", "120242.290000", "120243.570000", "120244.850000", "120246.130000", "120247.410000", "120248.690000", "120249.970000", "120251.250000", "120252.530000", "120253.810000", "120255.090000", "120256.370000", "120257.650000", "120258.930000", "120300.210000", "120301.490000", "120302.770000", "120304.050000", "120305.330000", "120306.610000", "120307.890000", "120309.170000", "120310.450000", "120311.730000", "120313.010000", "120314.290000", "120315.570000", "120316.850000", "120318.130000", "120319.410000", "120320.690000", "120321.970000", "120323.250000", "120324.530000", "120325.810000", "120327.090000", "120328.370000", "120329.650000", "120330.930000", "120332.210000", "120333.490000", "120334.770000", "120336.050000", "120337.330000", "120338.610000", "120339.890000", "120341.170000", "120342.450000", "120343.730000", "120345.010000", "120346.290000", "120347.570000", "120348.850000", "120350.130000", "120351.410000", "120352.690000", "120353.970000", "120355.250000", "120356.530000", "120357.810000", "120359.090000", "120400.370000", "120401.650000", "120402.930000", "120404.210000", "120405.490000", "120406.770000", "120408.050000", "120409.330000", "120410.610000", "120411.890000", "120413.170000", "120414.450000", "120415.730000", "120417.010000", "120418.290000", "120419.570000", "120420.850000", "120422.130000", "120423.410000", "120424.690000", "120425.970000", "120427.250000", "120428.530000", "120429.810000", "120431.090000", "120432.370000", "120433.650000", "120434.930000", "120436.210000", "120437.490000", "120438.770000", "120440.050000", "120441.330000", "120442.610000", "120443.890000", "120445.170000", "120446.450000", "120447.730000", "120449.010000", "120450.290000", "120451.570000", "120452.850000", "120454.130000", "120455.410000", "120456.690000", "120457.970000", "120459.250000", "120500.530000", "120501.810000", "120503.090000", "120504.370000", "120505.650000", "120506.930000", "120508.210000", "120509.490000", "120510.770000", "120512.050000", "120513.330000", "120514.610000", "120515.890000", "120517.170000", "120518.450000", "120519.730000", "120521.010000", "120522.290000", "120523.570000", "120524.850000", "120526.130000", "120527.410000", "120528.690000", "120529.970000", "120531.250000", "120532.530000", "120533.810000", "120535.090000", "120536.370000", "120537.650000", "120538.930000"],
      "ContentTime": ["115827.013000", "115827.017000", "115827.020000", "115827.023000", "115827.026000", "115827.028000", "115827.043000", "115827.046000", "115827.049000", "115827.052000", "115827.055000", "115827.058000", "115827.061000", "115827.064000", "115827.067000", "115827.070000", "115827.073000", "115827.084000", "115827.087000", "115827.090000", "115827.092000", "115827.095000", "115827.098000", "115827.101000", "115827.104000", "115827.107000", "115827.110000", "115827.113000", "115827.116000", "115827.119000", "115827.122000", "115827.125000", "115827.128000", "115827.131000", "115907.007000", "115907.010000", "115907.024000", "115907.027000", "115907.030000", "115907.033000", "115907.036000", "115907.039000", "115907.042000", "115907.045000", "115907.048000", "115907.051000", "115907.054000", "115907.057000", "115907.075000", "115907.078000", "115907.081000", "115907.084000", "115907.087000", "115907.090000", "115907.092000", "115907.095000", "115907.098000", "115907.101000", "115907.104000", "115907.107000", "115907.110000", "115907.113000", "115907.116000", "115907.119000", "115907.122000", "115947.008000", "115947.011000", "115947.014000", "115947.017000", "115947.020000", "115947.023000", "115947.026000", "115947.029000", "115947.032000", "115947.034000", "115947.037000", "115947.040000", "115947.043000", "115947.046000", "115947.049000", "115947.052000", "115947.055000", "115947.058000", "115947.061000", "115947.064000", "115947.067000", "115947.070000", "115947.073000", "115947.085000", "115947.088000", "115947.091000", "115947.094000", "115947.097000", "115947.100000", "115947.103000", "115947.106000", "115947.109000", "120027.008000", "120027.011000", "120027.014000", "120027.017000", "120027.020000", "120027.035000", "120027.039000", "120027.041000", "120027.044000", "120027.047000", "120027.062000", "120027.064000", "120027.067000", "120027.070000", "120027.073000", "120027.076000", "120027.079000", "120027.082000", "120027.085000", "120027.088000", "120027.091000", "120027.094000", "120027.097000", "120027.100000", "120027.102000", "120027.105000", "120027.108000", "120027.111000", "120027.114000", "120027.117000", "120027.120000", "120107.008000", "120107.011000", "120107.014000", "120107.017000", "120107.020000", "120107.023000", "120107.026000", "120107.029000", "120107.032000", "120107.035000", "120107.038000", "120107.041000", "120107.044000", "120107.047000", "120107.049000", "120107.052000", "120107.055000", "120107.058000", "120107.061000", "120107.064000", "120107.067000", "120107.070000", "120107.073000", "120107.076000", "120107.079000", "120107.082000", "120107.084000", "120107.087000", "120107.090000", "120107.093000", "120107.096000", "120147.008000", "120147.011000", "120147.021000", "120147.030000", "120147.041000", "120147.057000", "120147.061000", "120147.064000", "120147.080000", "120147.091000", "120147.102000", "120147.109000", "120147.120000", "120147.126000", "120147.136000", "120147.139000", "120147.143000", "120147.146000", "120147.149000", "120147.152000", "120147.155000", "120147.158000", "120147.161000", "120147.164000", "120147.167000", "120147.170000", "120147.185000", "120147.188000", "120147.191000", "120147.194000", "120147.197000", "120227.008000", "120227.011000", "120227.014000", "120227.017000", "120227.025000", "120227.028000", "120227.031000", "120227.034000", "120227.037000", "120227.040000", "120227.043000", "120227.046000", "120227.049000", "120227.052000", "120227.055000", "120227.058000", "120227.061000", "120227.064000", "120227.068000", "120227.071000", "120227.074000", "120227.077000", "120227.080000", "120227.083000", "120227.086000", "120227.089000", "120227.092000", "120227.095000", "120227.098000", "120227.101000", "120227.104000", "120227.107000", "120307.008000", "120307.011000", "120307.014000", "120307.017000", "120307.020000", "120307.023000", "120307.026000", "120307.029000", "120307.042000", "120307.045000", "120307.048000", "120307.051000", "120307.054000", "120307.057000", "120307.060000", "120307.063000", "120307.066000", "120307.069000", "120307.072000", "120307.075000", "120307.078000", "120307.081000", "120307.087000", "120307.090000", "120307.093000", "120307.096000", "120307.099000", "120307.102000", "120307.105000", "120307.108000", "120307.111000", "120347.007000", "120347.010000", "120347.013000", "120347.016000", "120347.029000", "120347.032000", "120347.035000", "120347.038000", "120347.042000", "120347.045000", "120347.048000", "120347.055000", "120347.058000", "120347.061000", "120347.064000", "120347.067000", "120347.071000", "120347.074000", "120347.077000", "120347.080000", "120347.083000", "120347.086000", "120347.089000", "120347.092000", "120347.095000", "120347.098000", "120347.101000", "120347.104000", "120347.107000", "120347.110000", "120347.113000", "120427.008000", "120427.011000", "120427.014000", "120427.018000", "120427.021000", "120427.024000", "120427.027000", "120427.030000", "120427.041000", "120427.044000", "120427.059000", "120427.063000", "120427.066000", "120427.069000", "120427.072000", "120427.075000", "120427.078000", "120427.081000", "120427.084000", "120427.087000", "120427.091000", "120427.094000", "120427.097000", "120427.101000", "120427.106000", "120427.111000", "120427.115000", "120427.119000", "120427.122000", "120427.125000", "120427.128000", "120507.008000", "120507.011000", "120507.014000", "120507.017000", "120507.020000", "120507.023000", "120507.036000", "120507.039000", "120507.042000", "120507.045000", "120507.048000", "120507.051000", "120507.054000", "120507.057000", "120507.060000", "120507.063000", "120507.066000", "120507.069000", "120507.072000", "120507.075000", "120507.078000", "120507.082000", "120507.085000", "120507.088000", "120507.091000", "120507.094000", "120507.097000", "120507.100000", "120507.103000", "120507.106000", "120507.109000", "120507.112000", "120539.980000", "120539.983000", "120539.986000", "120539.990000", "120539.993000", "120539.996000", "120540.000000", "120540.003000", "120540.006000", "120540.009000", "120540.013000", "120540.016000", "120540.020000", "120540.023000", "120540.026000", "120540.029000", "120540.032000", "120540.035000", "120540.038000", "120540.041000", "120540.046000", "120540.050000", "120540.055000", "120540.058000", "120540.061000", "120540.066000"],
      "InstanceCreationTime": ["115827.013000", "115827.017000", "115827.020000", "115827.023000", "115827.026000", "115827.028000", "115827.043000", "115827.046000", "115827.049000", "115827.052000", "115827.055000", "115827.058000", "115827.061000", "115827.064000", "115827.067000", "115827.070000", "115827.073000", "115827.084000", "115827.087000", "115827.090000", "115827.092000", "115827.095000", "115827.098000", "115827.101000", "115827.104000", "115827.107000", "115827.110000", "115827.113000", "115827.116000", "115827.119000", "115827.122000", "115827.125000", "115827.128000", "115827.131000", "115907.007000", "115907.010000", "115907.024000", "115907.027000", "115907.030000", "115907.033000", "115907.036000", "115907.039000", "115907.042000", "115907.045000", "115907.048000", "115907.051000", "115907.054000", "115907.057000", "115907.075000", "115907.078000", "115907.081000", "115907.084000", "115907.087000", "115907.090000", "115907.092000", "115907.095000", "115907.098000", "115907.101000", "115907.104000", "115907.107000", "115907.110000", "115907.113000", "115907.116000", "115907.119000", "115907.122000", "115947.008000", "115947.011000", "115947.014000", "115947.017000", "115947.020000", "115947.023000", "115947.026000", "115947.029000", "115947.032000", "115947.034000", "115947.037000", "115947.040000", "115947.043000", "115947.046000", "115947.049000", "115947.052000", "115947.055000", "115947.058000", "115947.061000", "115947.064000", "115947.067000", "115947.070000", "115947.073000", "115947.085000", "115947.088000", "115947.091000", "115947.094000", "115947.097000", "115947.100000", "115947.103000", "115947.106000", "115947.109000", "120027.008000", "120027.011000", "120027.014000", "120027.017000", "120027.020000", "120027.035000", "120027.039000", "120027.041000", "120027.044000", "120027.047000", "120027.062000", "120027.064000", "120027.067000", "120027.070000", "120027.073000", "120027.076000", "120027.079000", "120027.082000", "120027.085000", "120027.088000", "120027.091000", "120027.094000", "120027.097000", "120027.100000", "120027.102000", "120027.105000", "120027.108000", "120027.111000", "120027.114000", "120027.117000", "120027.120000", "120107.008000", "120107.011000", "120107.014000", "120107.017000", "120107.020000", "120107.023000", "120107.026000", "120107.029000", "120107.032000", "120107.035000", "120107.038000", "120107.041000", "120107.044000", "120107.047000", "120107.049000", "120107.052000", "120107.055000", "120107.058000", "120107.061000", "120107.064000", "120107.067000", "120107.070000", "120107.073000", "120107.076000", "120107.079000", "120107.082000", "120107.084000", "120107.087000", "120107.090000", "120107.093000", "120107.096000", "120147.008000", "120147.011000", "120147.021000", "120147.030000", "120147.041000", "120147.057000", "120147.061000", "120147.064000", "120147.080000", "120147.091000", "120147.102000", "120147.109000", "120147.120000", "120147.126000", "120147.136000", "120147.139000", "120147.143000", "120147.146000", "120147.149000", "120147.152000", "120147.155000", "120147.158000", "120147.161000", "120147.164000", "120147.167000", "120147.170000", "120147.185000", "120147.188000", "120147.191000", "120147.194000", "120147.197000", "120227.008000", "120227.011000", "120227.014000", "120227.017000", "120227.025000", "120227.028000", "120227.031000", "120227.034000", "120227.037000", "120227.040000", "120227.043000", "120227.046000", "120227.049000", "120227.052000", "120227.055000", "120227.058000", "120227.061000", "120227.064000", "120227.068000", "120227.071000", "120227.074000", "120227.077000", "120227.080000", "120227.083000", "120227.086000", "120227.089000", "120227.092000", "120227.095000", "120227.098000", "120227.101000", "120227.104000", "120227.107000", "120307.008000", "120307.011000", "120307.014000", "120307.017000", "120307.020000", "120307.023000", "120307.026000", "120307.029000", "120307.042000", "120307.045000", "120307.048000", "120307.051000", "120307.054000", "120307.057000", "120307.060000", "120307.063000", "120307.066000", "120307.069000", "120307.072000", "120307.075000", "120307.078000", "120307.081000", "120307.087000", "120307.090000", "120307.093000", "120307.096000", "120307.099000", "120307.102000", "120307.105000", "120307.108000", "120307.111000", "120347.007000", "120347.010000", "120347.013000", "120347.016000", "120347.029000", "120347.032000", "120347.035000", "120347.038000", "120347.042000", "120347.045000", "120347.048000", "120347.055000", "120347.058000", "120347.061000", "120347.064000", "120347.067000", "120347.071000", "120347.074000", "120347.077000", "120347.080000", "120347.083000", "120347.086000", "120347.089000", "120347.092000", "120347.095000", "120347.098000", "120347.101000", "120347.104000", "120347.107000", "120347.110000", "120347.113000", "120427.008000", "120427.011000", "120427.014000", "120427.018000", "120427.021000", "120427.024000", "120427.027000", "120427.030000", "120427.041000", "120427.044000", "120427.059000", "120427.063000", "120427.066000", "120427.069000", "120427.072000", "120427.075000", "120427.078000", "120427.081000", "120427.084000", "120427.087000", "120427.091000", "120427.094000", "120427.097000", "120427.101000", "120427.106000", "120427.111000", "120427.115000", "120427.119000", "120427.122000", "120427.125000", "120427.128000", "120507.008000", "120507.011000", "120507.014000", "120507.017000", "120507.020000", "120507.023000", "120507.036000", "120507.039000", "120507.042000", "120507.045000", "120507.048000", "120507.051000", "120507.054000", "120507.057000", "120507.060000", "120507.063000", "120507.066000", "120507.069000", "120507.072000", "120507.075000", "120507.078000", "120507.082000", "120507.085000", "120507.088000", "120507.091000", "120507.094000", "120507.097000", "120507.100000", "120507.103000", "120507.106000", "120507.109000", "120507.112000", "120539.980000", "120539.983000", "120539.986000", "120539.990000", "120539.993000", "120539.996000", "120540.000000", "120540.003000", "120540.006000", "120540.009000", "120540.013000", "120540.016000", "120540.020000", "120540.023000", "120540.026000", "120540.029000", "120540.032000", "120540.035000", "120540.038000", "120540.041000", "120540.046000", "120540.050000", "120540.055000", "120540.058000", "120540.061000", "120540.066000"],
      "InstanceNumber": [1, 2, 3, 4, 5, 6, 7, 8, 9, 10, 11, 12, 13, 14, 15, 16, 17, 18, 19, 20, 21, 22, 23, 24, 25, 26, 27, 28, 29, 30, 31, 32, 33, 34, 35, 36, 37, 38, 39, 40, 41, 42, 43, 44, 45, 46, 47, 48, 49, 50, 51, 52, 53, 54, 55, 56, 57, 58, 59, 60, 61, 62, 63, 64, 65, 66, 67, 68, 69, 70, 71, 72, 73, 74, 75, 76, 77, 78, 79, 80, 81, 82, 83, 84, 85, 86, 87, 88, 89, 90, 91, 92, 93, 94, 95, 96, 97, 98, 99, 100, 101, 102, 103, 104, 105, 106, 107, 108, 109, 110, 111, 112, 113, 114, 115, 116, 117, 118, 119, 120, 121, 122, 123, 124, 125, 126, 127, 128, 129, 130, 131, 132, 133, 134, 135, 136, 137, 138, 139, 140, 141, 142, 143, 144, 145, 146, 147, 148, 149, 150, 151, 152, 153, 154, 155, 156, 157, 158, 159, 160, 161, 162, 163, 164, 165, 166, 167, 168, 169, 170, 171, 172, 173, 174, 175, 176, 177, 178, 179, 180, 181, 182, 183, 184, 185, 186, 187, 188, 189, 190, 191, 192, 193, 194, 195, 196, 197, 198, 199, 200, 201, 202, 203, 204, 205, 206, 207, 208, 209, 210, 211, 212, 213, 214, 215, 216, 217, 218, 219, 220, 221, 222, 223, 224, 225, 226, 227, 228, 229, 230, 231, 232, 233, 234, 235, 236, 237, 238, 239, 240, 241, 242, 243, 244, 245, 246, 247, 248, 249, 250, 251, 252, 253, 254, 255, 256, 257, 258, 259, 260, 261, 262, 263, 264, 265, 266, 267, 268, 269, 270, 271, 272, 273, 274, 275, 276, 277, 278, 279, 280, 281, 282, 283, 284, 285, 286, 287, 288, 289, 290, 291, 292, 293, 294, 295, 296, 297, 298, 299, 300, 301, 302, 303, 304, 305, 306, 307, 308, 309, 310, 311, 312, 313, 314, 315, 316, 317, 318, 319, 320, 321, 322, 323, 324, 325, 326, 327, 328, 329, 330, 331, 332, 333, 334, 335, 336, 337, 338, 339, 340, 341, 342, 343, 344, 345, 346, 347, 348, 349, 350, 351, 352, 353, 354, 355, 356, 357, 358, 359, 360, 361, 362, 363, 364, 365, 366, 367, 368, 369, 370, 371, 372, 373],
