{
  "AcquisitionMatrixPE": 108,
  "AcquisitionNumber": 1,
  "AcquisitionTime": "15:15:33.417500",
  "BandwidthPerPixelPhaseEncode": 15.964,
  "BaseResolution": 108,
  "BodyPartExamined": "BRAIN",
  "ConsistencyInfo": "N4_VE11C_LATEST_20160120",
  "ConversionSoftware": "dcm2niix",
  "ConversionSoftwareVersion": "v1.0.20180622 GCC6.3.0",
  "DerivedVendorReportedEchoSpacing": 0.000580009,
  "DeviceSerialNumber": "66054",
  "DwellTime": 2.1e-06,
  "EchoTime": 0.031,
  "EchoTrainLength": 95,
  "EffectiveEchoSpacing": 0.000580009,
  "FlipAngle": 64,
  "ImageOrientationPatientDICOM": [0.998636, -0.052203, 0.000902942, 0.0470945, 0.893176, -0.447234],
  "ImageType": [
    "ORIGINAL",
    "PRIMARY",
    "M",
    "ND",
    "MOSAIC"
],
  "InPlanePhaseEncodingDirectionDICOM": "COL",
  "InstitutionAddress": "Chemin_des_Mines_9_Geneve_District_CH_1211",
  "InstitutionName": "Fondation_Campus_Biotech_Geneva",
  "InstitutionalDepartmentName": "Department",
  "MRAcquisitionType": "2D",
  "MagneticFieldStrength": 3,
  "Manufacturer": "Siemens",
  "ManufacturersModelName": "Prisma",
  "Modality": "MR",
  "MultibandAccelerationFactor": 4,
  "PartialFourier": 0.875,
  "PatientPosition": "HFS",
  "PercentPhaseFOV": 100,
  "PhaseEncodingDirection": "j-",
  "PhaseEncodingSteps": 95,
  "PhaseResolution": 1,
  "PixelBandwidth": 2205,
  "ProcedureStepDescription": "J.DRM_Michael",
  "ProtocolName": "Rest_bold_s4_TR1.28",
  "PulseSequenceDetails": "%SiemensSeq%_ep2d_bold",
  "ReceiveCoilActiveElements": "HC1-7;NC1,2",
  "ReceiveCoilName": "HeadNeck_64",
  "ReconMatrixPE": 108,
  "RepetitionTime": 1.28,
  "SAR": 0.0738012,
  "ScanOptions": "PFP_FS",
  "ScanningSequence": "EP",
  "SequenceName": "_epfid2d1_108",
  "SequenceVariant": "SK",
  "SeriesDescription": "Rest_bold_s4_TR1.28",
  "SeriesNumber": 10,
  "ShimSetting": [-1254, -11665, 6465, 671, 116, -137, -39, 65],
  "SliceThickness": 2,
  "SliceTiming": [0.945, 0, 0.63, 0.0775, 0.7075, 0.1575, 0.7875, 0.235, 0.865, 0.3925, 1.0225, 0.4725, 1.1025, 0.55, 1.18, 0.315, 0.945, 0, 0.63, 0.0775, 0.7075, 0.1575, 0.7875, 0.235, 0.865, 0.3925, 1.0225, 0.4725, 1.1025, 0.55, 1.18, 0.315, 0.945, 0, 0.63, 0.0775, 0.7075, 0.1575, 0.7875, 0.235, 0.865, 0.3925, 1.0225, 0.4725, 1.1025, 0.55, 1.18, 0.315, 0.945, 0, 0.63, 0.0775, 0.7075, 0.1575, 0.7875, 0.235, 0.865, 0.3925, 1.0225, 0.4725, 1.1025, 0.55, 1.18, 0.315],
  "SoftwareVersions": "syngo_MR_E11",
  "SpacingBetweenSlices": 2,
  "StationName": "AWP66054",
  "TaskName": "rest",
  "TotalReadoutTime": 0.0620609,
  "TxRefAmp": 274.085,
  "dcmmeta_affine": [
    [-1.9880255460739136, 0.093752920627594, -0.04508092626929283, 102.749755859375],
    [0.10392254590988159, 1.7780821323394775, -0.8933336734771729, -71.95059967041016],
    [0.0017975239316001534, 0.890327513217926, 1.7888327836990356, -98.46207427978516],
    [0.0, 0.0, 0.0, 1.0]
],
  "dcmmeta_reorient_transform": [
    [0.0, -1.0, 0.0, 107.0],
    [1.0, 0.0, 0.0, 0.0],
    [0.0, 0.0, 1.0, 0.0],
    [0.0, 0.0, 0.0, 1.0]
],
  "dcmmeta_shape": [108, 108, 64, 250],
  "dcmmeta_slice_dim": 2,
  "dcmmeta_version": 0.6,
  "global": {
    "const": {
      "AccessionNumber": "",
      "AcquisitionMatrix": [108, 0, 0, 108],
      "AngioFlag": "N",
      "BitsAllocated": 16,
      "BitsStored": 12,
      "BodyPartExamined": "BRAIN",
      "Columns": 864,
      "EchoNumbers": 1,
      "EchoTime": 31.0,
      "EchoTrainLength": 95,
      "FlipAngle": 64.0,
      "HighBit": 11,
      "ImageOrientationPatient": [0.99863608812452, -0.0522029519347, 0.00090294222584, 0.04709449007296, 0.89317613059765, -0.4472342884165],
      "ImagePositionPatient": [-899.69359282134, -751.13652076214, 332.66731789744],
      "ImageType": [
        "ORIGINAL",
        "PRIMARY",
        "M",
        "ND",
        "MOSAIC"
],
      "ImagedNucleus": "1H",
      "ImagingFrequency": 123.257398,
      "InPlanePhaseEncodingDirection": "COL",
      "MRAcquisitionType": "2D",
      "MagneticFieldStrength": 3.0,
      "Manufacturer": "SIEMENS",
      "ManufacturerModelName": "Prisma",
      "Modality": "MR",
      "NumberOfAverages": 1.0,
      "NumberOfPhaseEncodingSteps": 95,
      "PercentPhaseFieldOfView": 100.0,
      "PercentSampling": 100.0,
      "PerformedProcedureStepStartTime": "143014.434000",
      "PhotometricInterpretation": "MONOCHROME2",
      "PixelBandwidth": 2205.0,
      "PixelRepresentation": 0,
      "PixelSpacing": [1.990740776062, 1.990740776062],
      "PositionReferenceIndicator": "",
      "ProtocolName": "Rest_bold_s4_TR1.28",
      "RepetitionTime": 1280.0,
      "Rows": 864,
      "SAR": 0.07380116065232,
      "SamplesPerPixel": 1,
      "ScanOptions": [
        "PFP",
        "FS"
],
      "ScanningSequence": "EP",
      "SequenceName": "*epfid2d1_108",
      "SequenceVariant": "SK",
      "SeriesDescription": "Rest_bold_s4_TR1.28",
      "SeriesNumber": 10,
      "SeriesTime": "151617.052000",
      "SliceLocation": -58.244173677872,
      "SliceThickness": 2.0,
      "SmallestImagePixelValue": 0,
      "SoftwareVersions": "syngo MR E11",
      "SpacingBetweenSlices": 1.9999999931555,
      "SpecificCharacterSet": "ISO_IR 100",
      "StudyID": "1",
      "StudyTime": "143014.368000",
      "TransmitCoilName": "Body",
      "VariableFlipAngleFlag": "N",
      "WindowCenterWidthExplanation": "Algo1",
      "dBdt": 0.0},
    "slices": {}
  },
  "time": {
    "samples": {
      "AcquisitionNumber": [1, 2, 3, 4, 5, 6, 7, 8, 9, 10, 11, 12, 13, 14, 15, 16, 17, 18, 19, 20, 21, 22, 23, 24, 25, 26, 27, 28, 29, 30, 31, 32, 33, 34, 35, 36, 37, 38, 39, 40, 41, 42, 43, 44, 45, 46, 47, 48, 49, 50, 51, 52, 53, 54, 55, 56, 57, 58, 59, 60, 61, 62, 63, 64, 65, 66, 67, 68, 69, 70, 71, 72, 73, 74, 75, 76, 77, 78, 79, 80, 81, 82, 83, 84, 85, 86, 87, 88, 89, 90, 91, 92, 93, 94, 95, 96, 97, 98, 99, 100, 101, 102, 103, 104, 105, 106, 107, 108, 109, 110, 111, 112, 113, 114, 115, 116, 117, 118, 119, 120, 121, 122, 123, 124, 125, 126, 127, 128, 129, 130, 131, 132, 133, 134, 135, 136, 137, 138, 139, 140, 141, 142, 143, 144, 145, 146, 147, 148, 149, 150, 151, 152, 153, 154, 155, 156, 157, 158, 159, 160, 161, 162, 163, 164, 165, 166, 167, 168, 169, 170, 171, 172, 173, 174, 175, 176, 177, 178, 179, 180, 181, 182, 183, 184, 185, 186, 187, 188, 189, 190, 191, 192, 193, 194, 195, 196, 197, 198, 199, 200, 201, 202, 203, 204, 205, 206, 207, 208, 209, 210, 211, 212, 213, 214, 215, 216, 217, 218, 219, 220, 221, 222, 223, 224, 225, 226, 227, 228, 229, 230, 231, 232, 233, 234, 235, 236, 237, 238, 239, 240, 241, 242, 243, 244, 245, 246, 247, 248, 249, 250],
      "AcquisitionTime": ["151533.417500", "151534.697500", "151535.977500", "151537.257500", "151538.537500", "151539.817500", "151541.097500", "151542.377500", "151543.657500", "151544.937500", "151546.217500", "151547.497500", "151548.777500", "151550.057500", "151551.337500", "151552.617500", "151553.897500", "151555.177500", "151556.457500", "151557.737500", "151559.017500", "151600.297500", "151601.577500", "151602.857500", "151604.137500", "151605.417500", "151606.697500", "151607.977500", "151609.257500", "151610.537500", "151611.817500", "151613.097500", "151614.377500", "151615.657500", "151616.937500", "151618.217500", "151619.497500", "151620.777500", "151622.057500", "151623.337500", "151624.617500", "151625.897500", "151627.177500", "151628.457500", "151629.737500", "151631.017500", "151632.297500", "151633.577500", "151634.857500", "151636.137500", "151637.417500", "151638.697500", "151639.977500", "151641.257500", "151642.537500", "151643.817500", "151645.097500", "151646.377500", "151647.657500", "151648.937500", "151650.217500", "151651.497500", "151652.777500", "151654.057500", "151655.337500", "151656.617500", "151657.897500", "151659.177500", "151700.457500", "151701.737500", "151703.017500", "151704.297500", "151705.577500", "151706.857500", "151708.137500", "151709.417500", "151710.697500", "151711.977500", "151713.257500", "151714.537500", "151715.817500", "151717.097500", "151718.377500", "151719.657500", "151720.937500", "151722.217500", "151723.497500", "151724.777500", "151726.057500", "151727.337500", "151728.617500", "151729.897500", "151731.177500", "151732.457500", "151733.737500", "151735.017500", "151736.297500", "151737.577500", "151738.857500", "151740.137500", "151741.417500", "151742.697500", "151743.977500", "151745.257500", "151746.537500", "151747.817500", "151749.097500", "151750.377500", "151751.657500", "151752.937500", "151754.217500", "151755.497500", "151756.777500", "151758.057500", "151759.337500", "151800.617500", "151801.897500", "151803.177500", "151804.457500", "151805.737500", "151807.017500", "151808.297500", "151809.577500", "151810.857500", "151812.137500", "151813.417500", "151814.697500", "151815.977500", "151817.257500", "151818.537500", "151819.817500", "151821.097500", "151822.377500", "151823.657500", "151824.937500", "151826.217500", "151827.497500", "151828.777500", "151830.057500", "151831.337500", "151832.617500", "151833.897500", "151835.177500", "151836.457500", "151837.737500", "151839.017500", "151840.297500", "151841.577500", "151842.857500", "151844.137500", "151845.417500", "151846.697500", "151847.977500", "151849.257500", "151850.537500", "151851.817500", "151853.097500", "151854.377500", "151855.657500", "151856.937500", "151858.217500", "151859.497500", "151900.777500", "151902.057500", "151903.337500", "151904.617500", "151905.897500", "151907.177500", "151908.457500", "151909.737500", "151911.017500", "151912.297500", "151913.577500", "151914.857500", "151916.137500", "151917.417500", "151918.697500", "151919.977500", "151921.257500", "151922.537500", "151923.817500", "151925.097500", "151926.377500", "151927.657500", "151928.937500", "151930.217500", "151931.497500", "151932.777500", "151934.057500", "151935.337500", "151936.617500", "151937.897500", "151939.177500", "151940.457500", "151941.737500", "151943.017500", "151944.297500", "151945.577500", "151946.857500", "151948.137500", "151949.417500", "151950.697500", "151951.977500", "151953.257500", "151954.537500", "151955.817500", "151957.097500", "151958.377500", "151959.657500", "152000.937500", "152002.217500", "152003.497500", "152004.777500", "152006.057500", "152007.337500", "152008.617500", "152009.897500", "152011.177500", "152012.457500", "152013.737500", "152015.017500", "152016.297500", "152017.577500", "152018.857500", "152020.137500", "152021.417500", "152022.697500", "152023.977500", "152025.257500", "152026.537500", "152027.817500", "152029.097500", "152030.377500", "152031.657500", "152032.937500", "152034.217500", "152035.497500", "152036.777500", "152038.057500", "152039.337500", "152040.617500", "152041.897500", "152043.177500", "152044.457500", "152045.737500", "152047.017500", "152048.297500", "152049.577500", "152050.857500", "152052.137500"],
      "ContentTime": ["151617.056000", "151617.059000", "151617.063000", "151617.066000", "151617.069000", "151617.072000", "151617.075000", "151617.078000", "151617.081000", "151617.084000", "151617.087000", "151617.090000", "151617.092000", "151617.095000", "151617.098000", "151617.101000", "151617.104000", "151617.115000", "151617.118000", "151617.121000", "151617.124000", "151617.127000", "151617.130000", "151617.133000", "151617.136000", "151617.139000", "151617.142000", "151617.145000", "151617.148000", "151617.151000", "151617.154000", "151617.157000", "151617.160000", "151657.050000", "151657.053000", "151657.056000", "151657.059000", "151657.062000", "151657.065000", "151657.068000", "151657.071000", "151657.075000", "151657.088000", "151657.091000", "151657.094000", "151657.097000", "151657.100000", "151657.106000", "151657.109000", "151657.112000", "151657.115000", "151657.118000", "151657.121000", "151657.124000", "151657.127000", "151657.130000", "151657.133000", "151657.136000", "151657.139000", "151657.142000", "151657.145000", "151657.148000", "151657.151000", "151657.154000", "151657.157000", "151737.051000", "151737.054000", "151737.057000", "151737.060000", "151737.063000", "151737.066000", "151737.069000", "151737.072000", "151737.075000", "151737.078000", "151737.081000", "151737.084000", "151737.087000", "151737.095000", "151737.098000", "151737.101000", "151737.104000", "151737.107000", "151737.110000", "151737.113000", "151737.116000", "151737.119000", "151737.122000", "151737.125000", "151737.128000", "151737.131000", "151737.134000", "151737.137000", "151737.140000", "151737.143000", "151737.146000", "151817.051000", "151817.054000", "151817.057000", "151817.060000", "151817.063000", "151817.066000", "151817.069000", "151817.072000", "151817.075000", "151817.078000", "151817.081000", "151817.084000", "151817.087000", "151817.090000", "151817.093000", "151817.096000", "151817.098000", "151817.101000", "151817.104000", "151817.107000", "151817.110000", "151817.113000", "151817.116000", "151817.119000", "151817.122000", "151817.125000", "151817.128000", "151817.131000", "151817.134000", "151817.137000", "151817.140000", "151857.051000", "151857.054000", "151857.057000", "151857.060000", "151857.063000", "151857.066000", "151857.069000", "151857.072000", "151857.075000", "151857.078000", "151857.081000", "151857.084000", "151857.086000", "151857.089000", "151857.092000", "151857.095000", "151857.098000", "151857.101000", "151857.104000", "151857.107000", "151857.110000", "151857.113000", "151857.116000", "151857.119000", "151857.122000", "151857.125000", "151857.139000", "151857.142000", "151857.145000", "151857.148000", "151857.151000", "151937.050000", "151937.053000", "151937.056000", "151937.059000", "151937.062000", "151937.065000", "151937.068000", "151937.071000", "151937.074000", "151937.077000", "151937.080000", "151937.083000", "151937.086000", "151937.089000", "151937.092000", "151937.095000", "151937.098000", "151937.101000", "151937.104000", "151937.107000", "151937.110000", "151937.113000", "151937.118000", "151937.121000", "151937.124000", "151937.127000", "151937.130000", "151937.133000", "151937.136000", "151937.139000", "151937.142000", "152017.051000", "152017.054000", "152017.057000", "152017.060000", "152017.063000", "152017.066000", "152017.069000", "152017.072000", "152017.075000", "152017.078000", "152017.081000", "152017.084000", "152017.087000", "152017.090000", "152017.092000", "152017.095000", "152017.098000", "152017.101000", "152017.104000", "152017.107000", "152017.116000", "152017.119000", "152017.122000", "152017.124000", "152017.128000", "152017.131000", "152017.133000", "152017.136000", "152017.140000", "152017.143000", "152017.145000", "152017.148000", "152053.874000", "152053.877000", "152053.881000", "152053.884000", "152053.888000", "152053.891000", "152053.895000", "152053.902000", "152053.906000", "152053.910000", "152053.913000", "152053.916000", "152053.919000", "152053.923000", "152053.926000", "152053.929000", "152053.933000", "152053.936000", "152053.939000", "152053.942000", "152053.945000", "152053.948000", "152053.951000", "152053.954000", "152053.957000", "152053.960000", "152053.963000", "152053.966000", "152053.969000"],
      "InstanceCreationTime": ["151617.056000", "151617.059000", "151617.063000", "151617.066000", "151617.069000", "151617.072000", "151617.075000", "151617.078000", "151617.081000", "151617.084000", "151617.087000", "151617.090000", "151617.092000", "151617.095000", "151617.098000", "151617.101000", "151617.104000", "151617.115000", "151617.118000", "151617.121000", "151617.124000", "151617.127000", "151617.130000", "151617.133000", "151617.136000", "151617.139000", "151617.142000", "151617.145000", "151617.148000", "151617.151000", "151617.154000", "151617.157000", "151617.160000", "151657.050000", "151657.053000", "151657.056000", "151657.059000", "151657.062000", "151657.065000", "151657.068000", "151657.071000", "151657.075000", "151657.088000", "151657.091000", "151657.094000", "151657.097000", "151657.100000", "151657.106000", "151657.109000", "151657.112000", "151657.115000", "151657.118000", "151657.121000", "151657.124000", "151657.127000", "151657.130000", "151657.133000", "151657.136000", "151657.139000", "151657.142000", "151657.145000", "151657.148000", "151657.151000", "151657.154000", "151657.157000", "151737.051000", "151737.054000", "151737.057000", "151737.060000", "151737.063000", "151737.066000", "151737.069000", "151737.072000", "151737.075000", "151737.078000", "151737.081000", "151737.084000", "151737.087000", "151737.095000", "151737.098000", "151737.101000", "151737.104000", "151737.107000", "151737.110000", "151737.113000", "151737.116000", "151737.119000", "151737.122000", "151737.125000", "151737.128000", "151737.131000", "151737.134000", "151737.137000", "151737.140000", "151737.143000", "151737.146000", "151817.051000", "151817.054000", "151817.057000", "151817.060000", "151817.063000", "151817.066000", "151817.069000", "151817.072000", "151817.075000", "151817.078000", "151817.081000", "151817.084000", "151817.087000", "151817.090000", "151817.093000", "151817.096000", "151817.098000", "151817.101000", "151817.104000", "151817.107000", "151817.110000", "151817.113000", "151817.116000", "151817.119000", "151817.122000", "151817.125000", "151817.128000", "151817.131000", "151817.134000", "151817.137000", "151817.140000", "151857.051000", "151857.054000", "151857.057000", "151857.060000", "151857.063000", "151857.066000", "151857.069000", "151857.072000", "151857.075000", "151857.078000", "151857.081000", "151857.084000", "151857.086000", "151857.089000", "151857.092000", "151857.095000", "151857.098000", "151857.101000", "151857.104000", "151857.107000", "151857.110000", "151857.113000", "151857.116000", "151857.119000", "151857.122000", "151857.125000", "151857.139000", "151857.142000", "151857.145000", "151857.148000", "151857.151000", "151937.050000", "151937.053000", "151937.056000", "151937.059000", "151937.062000", "151937.065000", "151937.068000", "151937.071000", "151937.074000", "151937.077000", "151937.080000", "151937.083000", "151937.086000", "151937.089000", "151937.092000", "151937.095000", "151937.098000", "151937.101000", "151937.104000", "151937.107000", "151937.110000", "151937.113000", "151937.118000", "151937.121000", "151937.124000", "151937.127000", "151937.130000", "151937.133000", "151937.136000", "151937.139000", "151937.142000", "152017.051000", "152017.054000", "152017.057000", "152017.060000", "152017.063000", "152017.066000", "152017.069000", "152017.072000", "152017.075000", "152017.078000", "152017.081000", "152017.084000", "152017.087000", "152017.090000", "152017.092000", "152017.095000", "152017.098000", "152017.101000", "152017.104000", "152017.107000", "152017.116000", "152017.119000", "152017.122000", "152017.124000", "152017.128000", "152017.131000", "152017.133000", "152017.136000", "152017.140000", "152017.143000", "152017.145000", "152017.148000", "152053.874000", "152053.877000", "152053.881000", "152053.884000", "152053.888000", "152053.891000", "152053.895000", "152053.902000", "152053.906000", "152053.910000", "152053.913000", "152053.916000", "152053.919000", "152053.923000", "152053.926000", "152053.929000", "152053.933000", "152053.936000", "152053.939000", "152053.942000", "152053.945000", "152053.948000", "152053.951000", "152053.954000", "152053.957000", "152053.960000", "152053.963000", "152053.966000", "152053.969000"],
      "InstanceNumber": [1, 2, 3, 4, 5, 6, 7, 8, 9, 10, 11, 12, 13, 14, 15, 16, 17, 18, 19, 20, 21, 22, 23, 24, 25, 26, 27, 28, 29, 30, 31, 32, 33, 34, 35, 36, 37, 38, 39, 40, 41, 42, 43, 44, 45, 46, 47, 48, 49, 50, 51, 52, 53, 54, 55, 56, 57, 58, 59, 60, 61, 62, 63, 64, 65, 66, 67, 68, 69, 70, 71, 72, 73, 74, 75, 76, 77, 78, 79, 80, 81, 82, 83, 84, 85, 86, 87, 88, 89, 90, 91, 92, 93, 94, 95, 96, 97, 98, 99, 100, 101, 102, 103, 104, 105, 106, 107, 108, 109, 110, 111, 112, 113, 114, 115, 116, 117, 118, 119, 120, 121, 122, 123, 124, 125, 126, 127, 128, 129, 130, 131, 132, 133, 134, 135, 136, 137, 138, 139, 140, 141, 142, 143, 144, 145, 146, 147, 148, 149, 150, 151, 152, 153, 154, 155, 156, 157, 158, 159, 160, 161, 162, 163, 164, 165, 166, 167, 168, 169, 170, 171, 172, 173, 174, 175, 176, 177, 178, 179, 180, 181, 182, 183, 184, 185, 186, 187, 188, 189, 190, 191, 192, 193, 194, 195, 196, 197, 198, 199, 200, 201, 202, 203, 204, 205, 206, 207, 208, 209, 210, 211, 212, 213, 214, 215, 216, 217, 218, 219, 220, 221, 222, 223, 224, 225, 226, 227, 228, 229, 230, 231, 232, 233, 234, 235, 236, 237, 238, 239, 240, 241, 242, 243, 244, 245, 246, 247, 248, 249, 250],
      "LargestImagePixelValue": [2513, 2469, 2516, 2408, 2345, 2445, 2473, 2448, 2642, 2586, 2315, 2537, 2430, 2563, 2499, 2367, 2390, 2524, 2532, 2625, 2380, 2449, 2479, 2483, 2556, 2528, 2484, 2623, 2623, 2639, 2571, 2373, 2434, 2433, 2476, 2613, 2590, 2523, 2620, 2528, 2507, 2374, 2407, 2539, 2591, 2672, 2588, 2479, 2411, 2394, 2548, 2582, 2632, 2452, 2477, 2546, 2618, 2575, 2433, 2445, 2521, 2580, 2595, 2456, 2470, 2463, 2573, 2626, 2485, 2510, 2513, 2495, 2478, 2429, 2543, 2545, 2435, 2480, 2604, 2740, 2573, 2573, 2488, 2402, 2575, 2565, 2671, 2667, 2745, 2346, 2777, 2704, 2669, 2552, 2579, 2600, 2688, 2580, 2499, 2722, 2530, 2597, 2551, 2657, 2595, 2624, 2640, 2525, 2620, 2551, 2587, 2550, 2588, 2573, 2557, 2604, 2689, 2470, 2664, 2732, 2654, 2527, 2568, 2579, 2543, 2544, 2633, 2606, 2547, 2639, 2545, 2652, 2661, 2583, 2565, 2523, 2659, 2490, 2553, 2468, 2513, 2661, 2533, 2334, 2341, 2340, 2448, 2512, 2563, 2512, 2454, 2627, 2489, 2643, 2524, 2508, 2553, 2636, 2471, 2618, 2472, 2529, 2538, 2553, 2517, 2557, 2416, 2587, 2504, 2469, 2461, 2578, 2427, 2469, 2576, 3017, 2439, 2465, 2644, 2624, 2490, 2428, 3021, 2500, 2550, 2551, 2481, 2433, 2439, 2420, 2548, 2615, 2558, 2549, 2435, 2471, 2499, 2567, 2535, 2504, 2371, 2431, 2492, 2575, 2524, 2522, 2515, 2641, 2496, 2460, 2630, 2310, 2588, 2587, 2519, 2487, 2434, 2690, 2636, 2577, 2473, 2591, 2406, 2599, 2547, 2414, 2421, 2458, 2676, 2452, 2481, 2551, 2511, 2438, 2439, 2433, 2503, 2648, 2554, 2356, 2505, 2518, 2397, 2452, 2497, 2373, 2504, 2425, 2736, 2758],
      "WindowCenter": [635.0, 631.0, 631.0, 630.0, 629.0, 630.0, 630.0, 630.0, 631.0, 631.0, 629.0, 631.0, 630.0, 630.0, 630.0, 628.0, 627.0, 628.0, 628.0, 630.0, 629.0, 629.0, 629.0, 630.0, 630.0, 630.0, 630.0, 630.0, 631.0, 630.0, 630.0, 629.0, 629.0, 629.0, 630.0, 632.0, 633.0, 633.0, 633.0, 632.0, 631.0, 629.0, 630.0, 631.0, 631.0, 632.0, 631.0, 630.0, 630.0, 629.0, 630.0, 630.0, 631.0, 630.0, 630.0, 631.0, 631.0, 630.0, 629.0, 630.0, 631.0, 632.0, 632.0, 631.0, 630.0, 630.0, 632.0, 632.0, 631.0, 631.0, 632.0, 632.0, 632.0, 631.0, 631.0, 631.0, 629.0, 630.0, 633.0, 634.0, 632.0, 632.0, 631.0, 630.0, 632.0, 633.0, 635.0, 635.0, 634.0, 631.0, 635.0, 634.0, 633.0, 631.0, 631.0, 631.0, 632.0, 632.0, 631.0, 633.0, 632.0, 632.0, 631.0, 631.0, 629.0, 630.0, 630.0, 630.0, 631.0, 630.0, 630.0, 630.0, 630.0, 631.0, 632.0, 631.0, 631.0, 630.0, 632.0, 634.0, 633.0, 632.0, 632.0, 632.0, 633.0, 632.0, 632.0, 631.0, 630.0, 632.0, 631.0, 631.0, 634.0, 633.0, 632.0, 631.0, 632.0, 630.0, 629.0, 628.0, 628.0, 631.0, 631.0, 629.0, 627.0, 625.0, 626.0, 629.0, 630.0, 630.0, 629.0, 630.0, 630.0, 633.0, 632.0, 632.0, 631.0, 632.0, 632.0, 633.0, 632.0, 632.0, 632.0, 631.0, 630.0, 630.0, 630.0, 631.0, 632.0, 631.0, 631.0, 631.0, 630.0, 631.0, 632.0, 635.0, 630.0, 630.0, 632.0, 632.0, 631.0, 631.0, 635.0, 631.0, 632.0, 631.0, 631.0, 631.0, 631.0, 631.0, 632.0, 634.0, 633.0, 633.0, 631.0, 631.0, 631.0, 632.0, 631.0, 631.0, 628.0, 628.0, 628.0, 629.0, 630.0, 630.0, 630.0, 629.0, 626.0, 626.0, 630.0, 626.0, 632.0, 631.0, 630.0, 629.0, 628.0, 630.0, 633.0, 633.0, 631.0, 631.0, 630.0, 632.0, 631.0, 630.0, 630.0, 629.0, 633.0, 631.0, 630.0, 630.0, 629.0, 629.0, 630.0, 631.0, 633.0, 634.0, 632.0, 632.0, 633.0, 634.0, 632.0, 631.0, 630.0, 629.0, 631.0, 631.0, 634.0, 635.0],
      "WindowWidth": [1336.0, 1327.0, 1328.0, 1325.0, 1323.0, 1324.0, 1325.0, 1325.0, 1327.0, 1327.0, 1323.0, 1326.0, 1325.0, 1325.0, 1323.0, 1321.0, 1319.0, 1320.0, 1320.0, 1323.0, 1322.0, 1322.0, 1322.0, 1324.0, 1325.0, 1324.0, 1323.0, 1325.0, 1325.0, 1325.0, 1324.0, 1322.0, 1323.0, 1323.0, 1325.0, 1328.0, 1331.0, 1331.0, 1331.0, 1329.0, 1328.0, 1324.0, 1324.0, 1327.0, 1327.0, 1329.0, 1327.0, 1326.0, 1324.0, 1323.0, 1325.0, 1325.0, 1326.0, 1325.0, 1325.0, 1326.0, 1326.0, 1325.0, 1323.0, 1325.0, 1326.0, 1328.0, 1328.0, 1326.0, 1325.0, 1324.0, 1327.0, 1328.0, 1328.0, 1328.0, 1329.0, 1329.0, 1328.0, 1326.0, 1326.0, 1326.0, 1324.0, 1325.0, 1330.0, 1332.0, 1329.0, 1329.0, 1327.0, 1325.0, 1329.0, 1331.0, 1335.0, 1334.0, 1333.0, 1327.0, 1334.0, 1332.0, 1329.0, 1327.0, 1326.0, 1326.0, 1328.0, 1328.0, 1328.0, 1331.0, 1329.0, 1329.0, 1325.0, 1324.0, 1322.0, 1323.0, 1324.0, 1325.0, 1326.0, 1324.0, 1325.0, 1324.0, 1325.0, 1326.0, 1328.0, 1327.0, 1327.0, 1325.0, 1329.0, 1332.0, 1331.0, 1328.0, 1328.0, 1329.0, 1330.0, 1329.0, 1328.0, 1325.0, 1325.0, 1327.0, 1327.0, 1327.0, 1334.0, 1331.0, 1329.0, 1326.0, 1328.0, 1324.0, 1322.0, 1320.0, 1320.0, 1327.0, 1326.0, 1322.0, 1318.0, 1315.0, 1316.0, 1321.0, 1325.0, 1324.0, 1321.0, 1323.0, 1324.0, 1330.0, 1329.0, 1328.0, 1327.0, 1329.0, 1329.0, 1331.0, 1329.0, 1329.0, 1329.0, 1328.0, 1324.0, 1324.0, 1324.0, 1327.0, 1328.0, 1328.0, 1326.0, 1328.0, 1324.0, 1326.0, 1328.0, 1335.0, 1327.0, 1325.0, 1328.0, 1329.0, 1328.0, 1327.0, 1335.0, 1328.0, 1328.0, 1327.0, 1327.0, 1326.0, 1326.0, 1327.0, 1329.0, 1332.0, 1332.0, 1330.0, 1327.0, 1327.0, 1326.0, 1328.0, 1327.0, 1326.0, 1322.0, 1321.0, 1320.0, 1323.0, 1324.0, 1325.0, 1324.0, 1321.0, 1317.0, 1317.0, 1323.0, 1317.0, 1329.0, 1327.0, 1324.0, 1323.0, 1319.0, 1324.0, 1330.0, 1330.0, 1327.0, 1327.0, 1325.0, 1328.0, 1327.0, 1326.0, 1326.0, 1324.0, 1330.0, 1326.0, 1325.0, 1325.0, 1323.0, 1322.0, 1324.0, 1327.0, 1331.0, 1333.0, 1329.0, 1330.0, 1332.0, 1333.0, 1329.0, 1327.0, 1325.0, 1323.0, 1327.0, 1328.0, 1332.0, 1334.0]
    },
    "slices": {}
  }
}