{
  "AcquisitionMatrixPE": 108,
  "AcquisitionNumber": 1,
  "AcquisitionTime": "15:22:20.150000",
  "BandwidthPerPixelPhaseEncode": 15.964,
  "BaseResolution": 108,
  "BodyPartExamined": "BRAIN",
  "ConsistencyInfo": "N4_VE11C_LATEST_20160120",
  "ConversionSoftware": "dcm2niix",
  "ConversionSoftwareVersion": "v1.0.20180622 GCC6.3.0",
  "DerivedVendorReportedEchoSpacing": 0.000580009,
  "DeviceSerialNumber": "66054",
  "DwellTime": 2.1e-06,
  "EchoTime": 0.031,
  "EchoTrainLength": 95,
  "EffectiveEchoSpacing": 0.000580009,
  "FlipAngle": 64,
  "ImageOrientationPatientDICOM": [0.998636, -0.052203, 0.000902942, 0.0470945, 0.893176, -0.447234],
  "ImageType": [
    "ORIGINAL",
    "PRIMARY",
    "M",
    "ND",
    "MOSAIC"
],
  "InPlanePhaseEncodingDirectionDICOM": "COL",
  "InstitutionAddress": "Chemin_des_Mines_9_Geneve_District_CH_1211",
  "InstitutionName": "Fondation_Campus_Biotech_Geneva",
  "InstitutionalDepartmentName": "Department",
  "MRAcquisitionType": "2D",
  "MagneticFieldStrength": 3,
  "Manufacturer": "Siemens",
  "ManufacturersModelName": "Prisma",
  "Modality": "MR",
  "MultibandAccelerationFactor": 4,
  "PartialFourier": 0.875,
  "PatientPosition": "HFS",
  "PercentPhaseFOV": 100,
  "PhaseEncodingDirection": "j-",
  "PhaseEncodingSteps": 95,
  "PhaseResolution": 1,
  "PixelBandwidth": 2205,
  "ProcedureStepDescription": "J.DRM_Michael",
  "ProtocolName": "Run5_bold_s4_TR1.28",
  "PulseSequenceDetails": "%SiemensSeq%_ep2d_bold",
  "ReceiveCoilActiveElements": "HC1-7;NC1,2",
  "ReceiveCoilName": "HeadNeck_64",
  "ReconMatrixPE": 108,
  "RepetitionTime": 1.28,
  "SAR": 0.0740076,
  "ScanOptions": "PFP_FS",
  "ScanningSequence": "EP",
  "SequenceName": "_epfid2d1_108",
  "SequenceVariant": "SK",
  "SeriesDescription": "Run5_bold_s4_TR1.28",
  "SeriesNumber": 11,
  "ShimSetting": [-1254, -11665, 6465, 671, 116, -137, -39, 65],
  "SliceThickness": 2,
  "SliceTiming": [0.9425, 0, 0.6275, 0.0775, 0.7075, 0.1575, 0.785, 0.235, 0.865, 0.3925, 1.0225, 0.47, 1.1, 0.55, 1.18, 0.315, 0.9425, 0, 0.6275, 0.0775, 0.7075, 0.1575, 0.785, 0.235, 0.865, 0.3925, 1.0225, 0.47, 1.1, 0.55, 1.18, 0.315, 0.9425, 0, 0.6275, 0.0775, 0.7075, 0.1575, 0.785, 0.235, 0.865, 0.3925, 1.0225, 0.47, 1.1, 0.55, 1.18, 0.315, 0.9425, 0, 0.6275, 0.0775, 0.7075, 0.1575, 0.785, 0.235, 0.865, 0.3925, 1.0225, 0.47, 1.1, 0.55, 1.18, 0.315],
  "SoftwareVersions": "syngo_MR_E11",
  "SpacingBetweenSlices": 2,
  "StationName": "AWP66054",
  "TaskName": "main",
  "TotalReadoutTime": 0.0620609,
  "TxRefAmp": 274.085,
  "dcmmeta_affine": [
    [-1.9880255460739136, 0.093752920627594, -0.04508092626929283, 102.749755859375],
    [0.10392254590988159, 1.7780821323394775, -0.8933336734771729, -71.95059967041016],
    [0.0017975239316001534, 0.890327513217926, 1.7888327836990356, -98.46207427978516],
    [0.0, 0.0, 0.0, 1.0]
],
  "dcmmeta_reorient_transform": [
    [0.0, -1.0, 0.0, 107.0],
    [1.0, 0.0, 0.0, 0.0],
    [0.0, 0.0, 1.0, 0.0],
    [0.0, 0.0, 0.0, 1.0]
],
  "dcmmeta_shape": [108, 108, 64, 373],
  "dcmmeta_slice_dim": 2,
  "dcmmeta_version": 0.6,
  "global": {
    "const": {
      "AccessionNumber": "",
      "AcquisitionMatrix": [108, 0, 0, 108],
      "AngioFlag": "N",
      "BitsAllocated": 16,
      "BitsStored": 12,
      "BodyPartExamined": "BRAIN",
      "Columns": 864,
      "EchoNumbers": 1,
      "EchoTime": 31.0,
      "EchoTrainLength": 95,
      "FlipAngle": 64.0,
      "HighBit": 11,
      "ImageOrientationPatient": [0.99863608812452, -0.0522029519347, 0.00090294222584, 0.04709449007296, 0.89317613059765, -0.4472342884165],
      "ImagePositionPatient": [-899.69359282134, -751.13652076214, 332.66731789744],
      "ImageType": [
        "ORIGINAL",
        "PRIMARY",
        "M",
        "ND",
        "MOSAIC"
],
      "ImagedNucleus": "1H",
      "ImagingFrequency": 123.257401,
      "InPlanePhaseEncodingDirection": "COL",
      "MRAcquisitionType": "2D",
      "MagneticFieldStrength": 3.0,
      "Manufacturer": "SIEMENS",
      "ManufacturerModelName": "Prisma",
      "Modality": "MR",
      "NumberOfAverages": 1.0,
      "NumberOfPhaseEncodingSteps": 95,
      "PercentPhaseFieldOfView": 100.0,
      "PercentSampling": 100.0,
      "PerformedProcedureStepStartTime": "143014.434000",
      "PhotometricInterpretation": "MONOCHROME2",
      "PixelBandwidth": 2205.0,
      "PixelRepresentation": 0,
      "PixelSpacing": [1.990740776062, 1.990740776062],
      "PositionReferenceIndicator": "",
      "ProtocolName": "Run5_bold_s4_TR1.28",
      "RepetitionTime": 1280.0,
      "Rows": 864,
      "SAR": 0.07400764725068,
      "SamplesPerPixel": 1,
      "ScanOptions": [
        "PFP",
        "FS"
],
      "ScanningSequence": "EP",
      "SequenceName": "*epfid2d1_108",
      "SequenceVariant": "SK",
      "SeriesDescription": "Run5_bold_s4_TR1.28",
      "SeriesNumber": 11,
      "SeriesTime": "152233.836000",
      "SliceLocation": -58.244173677872,
      "SliceThickness": 2.0,
      "SmallestImagePixelValue": 0,
      "SoftwareVersions": "syngo MR E11",
      "SpacingBetweenSlices": 1.9999999931555,
      "SpecificCharacterSet": "ISO_IR 100",
      "StudyID": "1",
      "StudyTime": "143014.368000",
      "TransmitCoilName": "Body",
      "VariableFlipAngleFlag": "N",
      "WindowCenterWidthExplanation": "Algo1",
      "dBdt": 0.0},
    "slices": {}
  },
  "time": {
    "samples": {
      "AcquisitionNumber": [1, 2, 3, 4, 5, 6, 7, 8, 9, 10, 11, 12, 13, 14, 15, 16, 17, 18, 19, 20, 21, 22, 23, 24, 25, 26, 27, 28, 29, 30, 31, 32, 33, 34, 35, 36, 37, 38, 39, 40, 41, 42, 43, 44, 45, 46, 47, 48, 49, 50, 51, 52, 53, 54, 55, 56, 57, 58, 59, 60, 61, 62, 63, 64, 65, 66, 67, 68, 69, 70, 71, 72, 73, 74, 75, 76, 77, 78, 79, 80, 81, 82, 83, 84, 85, 86, 87, 88, 89, 90, 91, 92, 93, 94, 95, 96, 97, 98, 99, 100, 101, 102, 103, 104, 105, 106, 107, 108, 109, 110, 111, 112, 113, 114, 115, 116, 117, 118, 119, 120, 121, 122, 123, 124, 125, 126, 127, 128, 129, 130, 131, 132, 133, 134, 135, 136, 137, 138, 139, 140, 141, 142, 143, 144, 145, 146, 147, 148, 149, 150, 151, 152, 153, 154, 155, 156, 157, 158, 159, 160, 161, 162, 163, 164, 165, 166, 167, 168, 169, 170, 171, 172, 173, 174, 175, 176, 177, 178, 179, 180, 181, 182, 183, 184, 185, 186, 187, 188, 189, 190, 191, 192, 193, 194, 195, 196, 197, 198, 199, 200, 201, 202, 203, 204, 205, 206, 207, 208, 209, 210, 211, 212, 213, 214, 215, 216, 217, 218, 219, 220, 221, 222, 223, 224, 225, 226, 227, 228, 229, 230, 231, 232, 233, 234, 235, 236, 237, 238, 239, 240, 241, 242, 243, 244, 245, 246, 247, 248, 249, 250, 251, 252, 253, 254, 255, 256, 257, 258, 259, 260, 261, 262, 263, 264, 265, 266, 267, 268, 269, 270, 271, 272, 273, 274, 275, 276, 277, 278, 279, 280, 281, 282, 283, 284, 285, 286, 287, 288, 289, 290, 291, 292, 293, 294, 295, 296, 297, 298, 299, 300, 301, 302, 303, 304, 305, 306, 307, 308, 309, 310, 311, 312, 313, 314, 315, 316, 317, 318, 319, 320, 321, 322, 323, 324, 325, 326, 327, 328, 329, 330, 331, 332, 333, 334, 335, 336, 337, 338, 339, 340, 341, 342, 343, 344, 345, 346, 347, 348, 349, 350, 351, 352, 353, 354, 355, 356, 357, 358, 359, 360, 361, 362, 363, 364, 365, 366, 367, 368, 369, 370, 371, 372, 373],
      "AcquisitionTime": ["152220.150000", "152221.430000", "152222.710000", "152223.990000", "152225.270000", "152226.550000", "152227.830000", "152229.110000", "152230.390000", "152231.670000", "152232.950000", "152234.230000", "152235.510000", "152236.790000", "152238.070000", "152239.350000", "152240.630000", "152241.910000", "152243.190000", "152244.470000", "152245.750000", "152247.030000", "152248.310000", "152249.590000", "152250.870000", "152252.150000", "152253.430000", "152254.710000", "152255.990000", "152257.270000", "152258.550000", "152259.830000", "152301.110000", "152302.390000", "152303.670000", "152304.950000", "152306.230000", "152307.510000", "152308.790000", "152310.070000", "152311.350000", "152312.630000", "152313.910000", "152315.190000", "152316.470000", "152317.750000", "152319.030000", "152320.310000", "152321.590000", "152322.870000", "152324.150000", "152325.430000", "152326.710000", "152327.990000", "152329.270000", "152330.550000", "152331.830000", "152333.110000", "152334.390000", "152335.670000", "152336.950000", "152338.230000", "152339.510000", "152340.790000", "152342.070000", "152343.350000", "152344.630000", "152345.910000", "152347.190000", "152348.470000", "152349.750000", "152351.030000", "152352.310000", "152353.590000", "152354.870000", "152356.150000", "152357.430000", "152358.710000", "152359.990000", "152401.270000", "152402.550000", "152403.830000", "152405.110000", "152406.390000", "152407.670000", "152408.950000", "152410.230000", "152411.510000", "152412.790000", "152414.070000", "152415.350000", "152416.630000", "152417.910000", "152419.190000", "152420.470000", "152421.750000", "152423.030000", "152424.310000", "152425.590000", "152426.870000", "152428.150000", "152429.430000", "152430.710000", "152431.990000", "152433.270000", "152434.550000", "152435.830000", "152437.110000", "152438.390000", "152439.670000", "152440.950000", "152442.230000", "152443.510000", "152444.790000", "152446.070000", "152447.350000", "152448.630000", "152449.910000", "152451.190000", "152452.470000", "152453.750000", "152455.030000", "152456.310000", "152457.590000", "152458.870000", "152500.150000", "152501.430000", "152502.710000", "152503.990000", "152505.270000", "152506.550000", "152507.830000", "152509.110000", "152510.390000", "152511.670000", "152512.950000", "152514.230000", "152515.510000", "152516.790000", "152518.070000", "152519.350000", "152520.630000", "152521.910000", "152523.190000", "152524.470000", "152525.750000", "152527.030000", "152528.310000", "152529.590000", "152530.870000", "152532.150000", "152533.430000", "152534.710000", "152535.990000", "152537.270000", "152538.550000", "152539.830000", "152541.110000", "152542.390000", "152543.670000", "152544.950000", "152546.230000", "152547.510000", "152548.790000", "152550.070000", "152551.350000", "152552.630000", "152553.910000", "152555.190000", "152556.470000", "152557.750000", "152559.030000", "152600.310000", "152601.590000", "152602.870000", "152604.150000", "152605.430000", "152606.710000", "152607.990000", "152609.270000", "152610.550000", "152611.830000", "152613.110000", "152614.390000", "152615.670000", "152616.950000", "152618.230000", "152619.510000", "152620.790000", "152622.070000", "152623.350000", "152624.630000", "152625.910000", "152627.190000", "152628.470000", "152629.750000", "152631.030000", "152632.310000", "152633.590000", "152634.870000", "152636.150000", "152637.430000", "152638.710000", "152639.990000", "152641.270000", "152642.550000", "152643.830000", "152645.110000", "152646.390000", "152647.670000", "152648.950000", "152650.230000", "152651.510000", "152652.790000", "152654.070000", "152655.350000", "152656.630000", "152657.910000", "152659.190000", "152700.470000", "152701.750000", "152703.030000", "152704.310000", "152705.590000", "152706.870000", "152708.150000", "152709.430000", "152710.710000", "152711.990000", "152713.270000", "152714.550000", "152715.830000", "152717.110000", "152718.390000", "152719.670000", "152720.950000", "152722.230000", "152723.510000", "152724.790000", "152726.070000", "152727.350000", "152728.630000", "152729.910000", "152731.190000", "152732.470000", "152733.750000", "152735.030000", "152736.310000", "152737.590000", "152738.870000", "152740.150000", "152741.430000", "152742.710000", "152743.990000", "152745.270000", "152746.550000", "152747.830000", "152749.110000", "152750.390000", "152751.670000", "152752.950000", "152754.230000", "152755.510000", "152756.790000", "152758.070000", "152759.350000", "152800.630000", "152801.910000", "152803.190000", "152804.470000", "152805.750000", "152807.030000", "152808.310000", "152809.590000", "152810.870000", "152812.150000", "152813.430000", "152814.710000", "152815.990000", "152817.270000", "152818.550000", "152819.830000", "152821.110000", "152822.390000", "152823.670000", "152824.950000", "152826.230000", "152827.510000", "152828.790000", "152830.070000", "152831.350000", "152832.630000", "152833.910000", "152835.190000", "152836.470000", "152837.750000", "152839.030000", "152840.310000", "152841.590000", "152842.870000", "152844.150000", "152845.430000", "152846.710000", "152847.990000", "152849.270000", "152850.550000", "152851.830000", "152853.110000", "152854.390000", "152855.670000", "152856.950000", "152858.230000", "152859.510000", "152900.790000", "152902.070000", "152903.350000", "152904.630000", "152905.910000", "152907.190000", "152908.470000", "152909.750000", "152911.030000", "152912.310000", "152913.590000", "152914.870000", "152916.150000", "152917.430000", "152918.710000", "152919.990000", "152921.270000", "152922.550000", "152923.830000", "152925.110000", "152926.390000", "152927.670000", "152928.950000", "152930.230000", "152931.510000", "152932.790000", "152934.070000", "152935.350000", "152936.630000", "152937.910000", "152939.190000", "152940.470000", "152941.750000", "152943.030000", "152944.310000", "152945.590000", "152946.870000", "152948.150000", "152949.430000", "152950.710000", "152951.990000", "152953.270000", "152954.550000", "152955.830000", "152957.110000", "152958.390000", "152959.670000", "153000.950000", "153002.230000", "153003.510000", "153004.790000", "153006.070000", "153007.350000", "153008.630000", "153009.910000", "153011.190000", "153012.470000", "153013.750000", "153015.030000", "153016.310000"],
      "ContentTime": ["152233.840000", "152233.843000", "152233.847000", "152233.849000", "152233.852000", "152233.855000", "152233.869000", "152233.872000", "152233.878000", "152233.881000", "152313.835000", "152313.838000", "152313.841000", "152313.844000", "152313.847000", "152313.850000", "152313.853000", "152313.856000", "152313.859000", "152313.862000", "152313.865000", "152313.872000", "152313.875000", "152313.878000", "152313.881000", "152313.899000", "152313.902000", "152313.905000", "152313.908000", "152313.911000", "152313.914000", "152313.917000", "152313.919000", "152313.922000", "152313.925000", "152313.928000", "152313.931000", "152313.934000", "152313.937000", "152313.940000", "152313.943000", "152313.946000", "152353.835000", "152353.838000", "152353.841000", "152353.844000", "152353.847000", "152353.850000", "152353.853000", "152353.855000", "152353.858000", "152353.861000", "152353.864000", "152353.867000", "152353.870000", "152353.873000", "152353.876000", "152353.879000", "152353.882000", "152353.885000", "152353.888000", "152353.904000", "152353.906000", "152353.909000", "152353.912000", "152353.915000", "152353.918000", "152353.921000", "152353.924000", "152353.927000", "152353.930000", "152353.933000", "152353.936000", "152433.836000", "152433.841000", "152433.844000", "152433.847000", "152433.850000", "152433.853000", "152433.856000", "152433.859000", "152433.862000", "152433.865000", "152433.868000", "152433.871000", "152433.874000", "152433.876000", "152433.879000", "152433.882000", "152433.885000", "152433.888000", "152433.891000", "152433.894000", "152433.897000", "152433.900000", "152433.903000", "152433.906000", "152433.909000", "152433.912000", "152433.915000", "152433.918000", "152433.921000", "152433.924000", "152433.926000", "152513.835000", "152513.838000", "152513.841000", "152513.844000", "152513.847000", "152513.850000", "152513.853000", "152513.866000", "152513.868000", "152513.871000", "152513.874000", "152513.877000", "152513.880000", "152513.883000", "152513.886000", "152513.889000", "152513.892000", "152513.895000", "152513.898000", "152513.901000", "152513.904000", "152513.907000", "152513.910000", "152513.913000", "152513.916000", "152513.919000", "152513.922000", "152513.925000", "152513.928000", "152513.931000", "152513.934000", "152553.835000", "152553.838000", "152553.841000", "152553.844000", "152553.847000", "152553.850000", "152553.853000", "152553.856000", "152553.859000", "152553.862000", "152553.865000", "152553.868000", "152553.871000", "152553.874000", "152553.877000", "152553.880000", "152553.883000", "152553.886000", "152553.889000", "152553.892000", "152553.895000", "152553.898000", "152553.901000", "152553.904000", "152553.907000", "152553.910000", "152553.913000", "152553.916000", "152553.919000", "152553.922000", "152553.925000", "152553.928000", "152633.835000", "152633.838000", "152633.841000", "152633.852000", "152633.855000", "152633.858000", "152633.861000", "152633.864000", "152633.867000", "152633.870000", "152633.873000", "152633.876000", "152633.879000", "152633.885000", "152633.888000", "152633.891000", "152633.894000", "152633.897000", "152633.900000", "152633.903000", "152633.906000", "152633.909000", "152633.912000", "152633.915000", "152633.918000", "152633.921000", "152633.924000", "152633.927000", "152633.931000", "152633.934000", "152633.937000", "152713.836000", "152713.847000", "152713.850000", "152713.853000", "152713.856000", "152713.860000", "152713.863000", "152713.865000", "152713.868000", "152713.871000", "152713.874000", "152713.877000", "152713.880000", "152713.883000", "152713.886000", "152713.889000", "152713.892000", "152713.895000", "152713.898000", "152713.906000", "152713.909000", "152713.912000", "152713.915000", "152713.918000", "152713.921000", "152713.924000", "152713.927000", "152713.930000", "152713.933000", "152713.936000", "152713.939000", "152753.835000", "152753.838000", "152753.841000", "152753.844000", "152753.847000", "152753.850000", "152753.853000", "152753.856000", "152753.859000", "152753.862000", "152753.865000", "152753.868000", "152753.871000", "152753.874000", "152753.883000", "152753.886000", "152753.889000", "152753.892000", "152753.895000", "152753.898000", "152753.901000", "152753.904000", "152753.906000", "152753.909000", "152753.912000", "152753.915000", "152753.918000", "152753.921000", "152753.927000", "152753.930000", "152753.933000", "152833.835000", "152833.838000", "152833.841000", "152833.844000", "152833.847000", "152833.850000", "152833.853000", "152833.856000", "152833.859000", "152833.862000", "152833.865000", "152833.867000", "152833.870000", "152833.873000", "152833.876000", "152833.879000", "152833.882000", "152833.885000", "152833.888000", "152833.891000", "152833.894000", "152833.897000", "152833.900000", "152833.903000", "152833.906000", "152833.909000", "152833.912000", "152833.915000", "152833.918000", "152833.921000", "152833.924000", "152833.926000", "152913.835000", "152913.838000", "152913.841000", "152913.844000", "152913.847000", "152913.850000", "152913.853000", "152913.856000", "152913.859000", "152913.862000", "152913.865000", "152913.868000", "152913.870000", "152913.873000", "152913.876000", "152913.880000", "152913.883000", "152913.885000", "152913.888000", "152913.891000", "152913.894000", "152913.897000", "152913.900000", "152913.903000", "152913.906000", "152913.909000", "152913.912000", "152913.915000", "152913.918000", "152913.921000", "152913.924000", "152953.835000", "152953.838000", "152953.841000", "152953.844000", "152953.847000", "152953.850000", "152953.853000", "152953.856000", "152953.859000", "152953.862000", "152953.865000", "152953.868000", "152953.871000", "152953.874000", "152953.877000", "152953.880000", "152953.883000", "152953.886000", "152953.889000", "152953.892000", "152953.895000", "152953.898000", "152953.901000", "152953.904000", "152953.913000", "152953.916000", "152953.920000", "152953.922000", "152953.925000", "152953.928000", "152953.931000", "153017.414000", "153017.418000", "153017.422000", "153017.429000", "153017.433000", "153017.436000", "153017.439000", "153017.443000", "153017.446000", "153017.449000", "153017.452000", "153017.455000", "153017.458000", "153017.461000", "153017.464000", "153017.468000", "153017.472000", "153017.475000", "153017.478000"],
      "InstanceCreationTime": ["152233.840000", "152233.843000", "152233.847000", "152233.849000", "152233.852000", "152233.855000", "152233.869000", "152233.872000", "152233.878000", "152233.881000", "152313.835000", "152313.838000", "152313.841000", "152313.844000", "152313.847000", "152313.850000", "152313.853000", "152313.856000", "152313.859000", "152313.862000", "152313.865000", "152313.872000", "152313.875000", "152313.878000", "152313.881000", "152313.899000", "152313.902000", "152313.905000", "152313.908000", "152313.911000", "152313.914000", "152313.917000", "152313.919000", "152313.922000", "152313.925000", "152313.928000", "152313.931000", "152313.934000", "152313.937000", "152313.940000", "152313.943000", "152313.946000", "152353.835000", "152353.838000", "152353.841000", "152353.844000", "152353.847000", "152353.850000", "152353.853000", "152353.855000", "152353.858000", "152353.861000", "152353.864000", "152353.867000", "152353.870000", "152353.873000", "152353.876000", "152353.879000", "152353.882000", "152353.885000", "152353.888000", "152353.904000", "152353.906000", "152353.909000", "152353.912000", "152353.915000", "152353.918000", "152353.921000", "152353.924000", "152353.927000", "152353.930000", "152353.933000", "152353.936000", "152433.836000", "152433.841000", "152433.844000", "152433.847000", "152433.850000", "152433.853000", "152433.856000", "152433.859000", "152433.862000", "152433.865000", "152433.868000", "152433.871000", "152433.874000", "152433.876000", "152433.879000", "152433.882000", "152433.885000", "152433.888000", "152433.891000", "152433.894000", "152433.897000", "152433.900000", "152433.903000", "152433.906000", "152433.909000", "152433.912000", "152433.915000", "152433.918000", "152433.921000", "152433.924000", "152433.926000", "152513.835000", "152513.838000", "152513.841000", "152513.844000", "152513.847000", "152513.850000", "152513.853000", "152513.866000", "152513.868000", "152513.871000", "152513.874000", "152513.877000", "152513.880000", "152513.883000", "152513.886000", "152513.889000", "152513.892000", "152513.895000", "152513.898000", "152513.901000", "152513.904000", "152513.907000", "152513.910000", "152513.913000", "152513.916000", "152513.919000", "152513.922000", "152513.925000", "152513.928000", "152513.931000", "152513.934000", "152553.835000", "152553.838000", "152553.841000", "152553.844000", "152553.847000", "152553.850000", "152553.853000", "152553.856000", "152553.859000", "152553.862000", "152553.865000", "152553.868000", "152553.871000", "152553.874000", "152553.877000", "152553.880000", "152553.883000", "152553.886000", "152553.889000", "152553.892000", "152553.895000", "152553.898000", "152553.901000", "152553.904000", "152553.907000", "152553.910000", "152553.913000", "152553.916000", "152553.919000", "152553.922000", "152553.925000", "152553.928000", "152633.835000", "152633.838000", "152633.841000", "152633.852000", "152633.855000", "152633.858000", "152633.861000", "152633.864000", "152633.867000", "152633.870000", "152633.873000", "152633.876000", "152633.879000", "152633.885000", "152633.888000", "152633.891000", "152633.894000", "152633.897000", "152633.900000", "152633.903000", "152633.906000", "152633.909000", "152633.912000", "152633.915000", "152633.918000", "152633.921000", "152633.924000", "152633.927000", "152633.931000", "152633.934000", "152633.937000", "152713.836000", "152713.847000", "152713.850000", "152713.853000", "152713.856000", "152713.860000", "152713.863000", "152713.865000", "152713.868000", "152713.871000", "152713.874000", "152713.877000", "152713.880000", "152713.883000", "152713.886000", "152713.889000", "152713.892000", "152713.895000", "152713.898000", "152713.906000", "152713.909000", "152713.912000", "152713.915000", "152713.918000", "152713.921000", "152713.924000", "152713.927000", "152713.930000", "152713.933000", "152713.936000", "152713.939000", "152753.835000", "152753.838000", "152753.841000", "152753.844000", "152753.847000", "152753.850000", "152753.853000", "152753.856000", "152753.859000", "152753.862000", "152753.865000", "152753.868000", "152753.871000", "152753.874000", "152753.883000", "152753.886000", "152753.889000", "152753.892000", "152753.895000", "152753.898000", "152753.901000", "152753.904000", "152753.906000", "152753.909000", "152753.912000", "152753.915000", "152753.918000", "152753.921000", "152753.927000", "152753.930000", "152753.933000", "152833.835000", "152833.838000", "152833.841000", "152833.844000", "152833.847000", "152833.850000", "152833.853000", "152833.856000", "152833.859000", "152833.862000", "152833.865000", "152833.867000", "152833.870000", "152833.873000", "152833.876000", "152833.879000", "152833.882000", "152833.885000", "152833.888000", "152833.891000", "152833.894000", "152833.897000", "152833.900000", "152833.903000", "152833.906000", "152833.909000", "152833.912000", "152833.915000", "152833.918000", "152833.921000", "152833.924000", "152833.926000", "152913.835000", "152913.838000", "152913.841000", "152913.844000", "152913.847000", "152913.850000", "152913.853000", "152913.856000", "152913.859000", "152913.862000", "152913.865000", "152913.868000", "152913.870000", "152913.873000", "152913.876000", "152913.880000", "152913.883000", "152913.885000", "152913.888000", "152913.891000", "152913.894000", "152913.897000", "152913.900000", "152913.903000", "152913.906000", "152913.909000", "152913.912000", "152913.915000", "152913.918000", "152913.921000", "152913.924000", "152953.835000", "152953.838000", "152953.841000", "152953.844000", "152953.847000", "152953.850000", "152953.853000", "152953.856000", "152953.859000", "152953.862000", "152953.865000", "152953.868000", "152953.871000", "152953.874000", "152953.877000", "152953.880000", "152953.883000", "152953.886000", "152953.889000", "152953.892000", "152953.895000", "152953.898000", "152953.901000", "152953.904000", "152953.913000", "152953.916000", "152953.920000", "152953.922000", "152953.925000", "152953.928000", "152953.931000", "153017.414000", "153017.418000", "153017.422000", "153017.429000", "153017.433000", "153017.436000", "153017.439000", "153017.443000", "153017.446000", "153017.449000", "153017.452000", "153017.455000", "153017.458000", "153017.461000", "153017.464000", "153017.468000", "153017.472000", "153017.475000", "153017.478000"],
      "InstanceNumber": [1, 2, 3, 4, 5, 6, 7, 8, 9, 10, 11, 12, 13, 14, 15, 16, 17, 18, 19, 20, 21, 22, 23, 24, 25, 26, 27, 28, 29, 30, 31, 32, 33, 34, 35, 36, 37, 38, 39, 40, 41, 42, 43, 44, 45, 46, 47, 48, 49, 50, 51, 52, 53, 54, 55, 56, 57, 58, 59, 60, 61, 62, 63, 64, 65, 66, 67, 68, 69, 70, 71, 72, 73, 74, 75, 76, 77, 78, 79, 80, 81, 82, 83, 84, 85, 86, 87, 88, 89, 90, 91, 92, 93, 94, 95, 96, 97, 98, 99, 100, 101, 102, 103, 104, 105, 106, 107, 108, 109, 110, 111, 112, 113, 114, 115, 116, 117, 118, 119, 120, 121, 122, 123, 124, 125, 126, 127, 128, 129, 130, 131, 132, 133, 134, 135, 136, 137, 138, 139, 140, 141, 142, 143, 144, 145, 146, 147, 148, 149, 150, 151, 152, 153, 154, 155, 156, 157, 158, 159, 160, 161, 162, 163, 164, 165, 166, 167, 168, 169, 170, 171, 172, 173, 174, 175, 176, 177, 178, 179, 180, 181, 182, 183, 184, 185, 186, 187, 188, 189, 190, 191, 192, 193, 194, 195, 196, 197, 198, 199, 200, 201, 202, 203, 204, 205, 206, 207, 208, 209, 210, 211, 212, 213, 214, 215, 216, 217, 218, 219, 220, 221, 222, 223, 224, 225, 226, 227, 228, 229, 230, 231, 232, 233, 234, 235, 236, 237, 238, 239, 240, 241, 242, 243, 244, 245, 246, 247, 248, 249, 250, 251, 252, 253, 254, 255, 256, 257, 258, 259, 260, 261, 262, 263, 264, 265, 266, 267, 268, 269, 270, 271, 272, 273, 274, 275, 276, 277, 278, 279, 280, 281, 282, 283, 284, 285, 286, 287, 288, 289, 290, 291, 292, 293, 294, 295, 296, 297, 298, 299, 300, 301, 302, 303, 304, 305, 306, 307, 308, 309, 310, 311, 312, 313, 314, 315, 316, 317, 318, 319, 320, 321, 322, 323, 324, 325, 326, 327, 328, 329, 330, 331, 332, 333, 334, 335, 336, 337, 338, 339, 340, 341, 342, 343, 344, 345, 346, 347, 348, 349, 350, 351, 352, 353, 354, 355, 356, 357, 358, 359, 360, 361, 362, 363, 364, 365, 366, 367, 368, 369, 370, 371, 372, 373],
