{
  "AcquisitionMatrixPE": 108,
  "AcquisitionNumber": 1,
  "AcquisitionTime": "15:34:13.927500",
  "BandwidthPerPixelPhaseEncode": 15.964,
  "BaseResolution": 108,
  "BodyPartExamined": "BRAIN",
  "ConsistencyInfo": "N4_VE11C_LATEST_20160120",
  "ConversionSoftware": "dcm2niix",
  "ConversionSoftwareVersion": "v1.0.20180622 GCC6.3.0",
  "DerivedVendorReportedEchoSpacing": 0.000580009,
  "DeviceSerialNumber": "66054",
  "DwellTime": 2.1e-06,
  "EchoTime": 0.031,
  "EchoTrainLength": 95,
  "EffectiveEchoSpacing": 0.000580009,
  "FlipAngle": 64,
  "ImageOrientationPatientDICOM": [0.998636, -0.052203, 0.000902942, 0.0470945, 0.893176, -0.447234],
  "ImageType": [
    "ORIGINAL",
    "PRIMARY",
    "M",
    "ND",
    "MOSAIC"
],
  "InPlanePhaseEncodingDirectionDICOM": "COL",
  "InstitutionAddress": "Chemin_des_Mines_9_Geneve_District_CH_1211",
  "InstitutionName": "Fondation_Campus_Biotech_Geneva",
  "InstitutionalDepartmentName": "Department",
  "MRAcquisitionType": "2D",
  "MagneticFieldStrength": 3,
  "Manufacturer": "Siemens",
  "ManufacturersModelName": "Prisma",
  "Modality": "MR",
  "MultibandAccelerationFactor": 4,
  "PartialFourier": 0.875,
  "PatientPosition": "HFS",
  "PercentPhaseFOV": 100,
  "PhaseEncodingDirection": "j-",
  "PhaseEncodingSteps": 95,
  "PhaseResolution": 1,
  "PixelBandwidth": 2205,
  "ProcedureStepDescription": "J.DRM_Michael",
  "ProtocolName": "Run6_bold_s4_TR1.28",
  "PulseSequenceDetails": "%SiemensSeq%_ep2d_bold",
  "ReceiveCoilActiveElements": "HC1-7;NC1,2",
  "ReceiveCoilName": "HeadNeck_64",
  "ReconMatrixPE": 108,
  "RepetitionTime": 1.28,
  "SAR": 0.0740076,
  "ScanOptions": "PFP_FS",
  "ScanningSequence": "EP",
  "SequenceName": "_epfid2d1_108",
  "SequenceVariant": "SK",
  "SeriesDescription": "Run6_bold_s4_TR1.28",
  "SeriesNumber": 14,
  "ShimSetting": [-1254, -11665, 6465, 671, 116, -137, -39, 65],
  "SliceThickness": 2,
  "SliceTiming": [0.945, 0, 0.63, 0.08, 0.71, 0.1575, 0.7875, 0.2375, 0.8675, 0.395, 1.025, 0.4725, 1.1025, 0.5525, 1.1825, 0.315, 0.945, 0, 0.63, 0.08, 0.71, 0.1575, 0.7875, 0.2375, 0.8675, 0.395, 1.025, 0.4725, 1.1025, 0.5525, 1.1825, 0.315, 0.945, 0, 0.63, 0.08, 0.71, 0.1575, 0.7875, 0.2375, 0.8675, 0.395, 1.025, 0.4725, 1.1025, 0.5525, 1.1825, 0.315, 0.945, 0, 0.63, 0.08, 0.71, 0.1575, 0.7875, 0.2375, 0.8675, 0.395, 1.025, 0.4725, 1.1025, 0.5525, 1.1825, 0.315],
  "SoftwareVersions": "syngo_MR_E11",
  "SpacingBetweenSlices": 2,
  "StationName": "AWP66054",
  "TaskName": "main",
  "TotalReadoutTime": 0.0620609,
  "TxRefAmp": 274.085,
  "dcmmeta_affine": [
    [-1.9880255460739136, 0.093752920627594, -0.04508092626929283, 102.749755859375],
    [0.10392254590988159, 1.7780821323394775, -0.8933336734771729, -71.95059967041016],
    [0.0017975239316001534, 0.890327513217926, 1.7888327836990356, -98.46207427978516],
    [0.0, 0.0, 0.0, 1.0]
],
  "dcmmeta_reorient_transform": [
    [0.0, -1.0, 0.0, 107.0],
    [1.0, 0.0, 0.0, 0.0],
    [0.0, 0.0, 1.0, 0.0],
    [0.0, 0.0, 0.0, 1.0]
],
  "dcmmeta_shape": [108, 108, 64, 373],
  "dcmmeta_slice_dim": 2,
  "dcmmeta_version": 0.6,
  "global": {
    "const": {
      "AccessionNumber": "",
      "AcquisitionMatrix": [108, 0, 0, 108],
      "AngioFlag": "N",
      "BitsAllocated": 16,
      "BitsStored": 12,
      "BodyPartExamined": "BRAIN",
      "Columns": 864,
      "EchoNumbers": 1,
      "EchoTime": 31.0,
      "EchoTrainLength": 95,
      "FlipAngle": 64.0,
      "HighBit": 11,
      "ImageOrientationPatient": [0.99863608812452, -0.0522029519347, 0.00090294222584, 0.04709449007296, 0.89317613059765, -0.4472342884165],
      "ImagePositionPatient": [-899.69359282134, -751.13652076214, 332.66731789744],
      "ImageType": [
        "ORIGINAL",
        "PRIMARY",
        "M",
        "ND",
        "MOSAIC"
],
      "ImagedNucleus": "1H",
      "ImagingFrequency": 123.257404,
      "InPlanePhaseEncodingDirection": "COL",
      "MRAcquisitionType": "2D",
      "MagneticFieldStrength": 3.0,
      "Manufacturer": "SIEMENS",
      "ManufacturerModelName": "Prisma",
      "Modality": "MR",
      "NumberOfAverages": 1.0,
      "NumberOfPhaseEncodingSteps": 95,
      "PercentPhaseFieldOfView": 100.0,
      "PercentSampling": 100.0,
      "PerformedProcedureStepStartTime": "143014.434000",
      "PhotometricInterpretation": "MONOCHROME2",
      "PixelBandwidth": 2205.0,
      "PixelRepresentation": 0,
      "PixelSpacing": [1.990740776062, 1.990740776062],
      "PositionReferenceIndicator": "",
      "ProtocolName": "Run6_bold_s4_TR1.28",
      "RepetitionTime": 1280.0,
      "Rows": 864,
      "SAR": 0.07400764725068,
      "SamplesPerPixel": 1,
      "ScanOptions": [
        "PFP",
        "FS"
],
      "ScanningSequence": "EP",
      "SequenceName": "*epfid2d1_108",
      "SequenceVariant": "SK",
      "SeriesDescription": "Run6_bold_s4_TR1.28",
      "SeriesNumber": 14,
      "SeriesTime": "153457.058000",
      "SliceLocation": -58.244173677872,
      "SliceThickness": 2.0,
      "SmallestImagePixelValue": 0,
      "SoftwareVersions": "syngo MR E11",
      "SpacingBetweenSlices": 1.9999999931555,
      "SpecificCharacterSet": "ISO_IR 100",
      "StudyID": "1",
      "StudyTime": "143014.368000",
      "TransmitCoilName": "Body",
      "VariableFlipAngleFlag": "N",
      "WindowCenterWidthExplanation": "Algo1",
      "dBdt": 0.0},
    "slices": {}
  },
  "time": {
    "samples": {
      "AcquisitionNumber": [1, 2, 3, 4, 5, 6, 7, 8, 9, 10, 11, 12, 13, 14, 15, 16, 17, 18, 19, 20, 21, 22, 23, 24, 25, 26, 27, 28, 29, 30, 31, 32, 33, 34, 35, 36, 37, 38, 39, 40, 41, 42, 43, 44, 45, 46, 47, 48, 49, 50, 51, 52, 53, 54, 55, 56, 57, 58, 59, 60, 61, 62, 63, 64, 65, 66, 67, 68, 69, 70, 71, 72, 73, 74, 75, 76, 77, 78, 79, 80, 81, 82, 83, 84, 85, 86, 87, 88, 89, 90, 91, 92, 93, 94, 95, 96, 97, 98, 99, 100, 101, 102, 103, 104, 105, 106, 107, 108, 109, 110, 111, 112, 113, 114, 115, 116, 117, 118, 119, 120, 121, 122, 123, 124, 125, 126, 127, 128, 129, 130, 131, 132, 133, 134, 135, 136, 137, 138, 139, 140, 141, 142, 143, 144, 145, 146, 147, 148, 149, 150, 151, 152, 153, 154, 155, 156, 157, 158, 159, 160, 161, 162, 163, 164, 165, 166, 167, 168, 169, 170, 171, 172, 173, 174, 175, 176, 177, 178, 179, 180, 181, 182, 183, 184, 185, 186, 187, 188, 189, 190, 191, 192, 193, 194, 195, 196, 197, 198, 199, 200, 201, 202, 203, 204, 205, 206, 207, 208, 209, 210, 211, 212, 213, 214, 215, 216, 217, 218, 219, 220, 221, 222, 223, 224, 225, 226, 227, 228, 229, 230, 231, 232, 233, 234, 235, 236, 237, 238, 239, 240, 241, 242, 243, 244, 245, 246, 247, 248, 249, 250, 251, 252, 253, 254, 255, 256, 257, 258, 259, 260, 261, 262, 263, 264, 265, 266, 267, 268, 269, 270, 271, 272, 273, 274, 275, 276, 277, 278, 279, 280, 281, 282, 283, 284, 285, 286, 287, 288, 289, 290, 291, 292, 293, 294, 295, 296, 297, 298, 299, 300, 301, 302, 303, 304, 305, 306, 307, 308, 309, 310, 311, 312, 313, 314, 315, 316, 317, 318, 319, 320, 321, 322, 323, 324, 325, 326, 327, 328, 329, 330, 331, 332, 333, 334, 335, 336, 337, 338, 339, 340, 341, 342, 343, 344, 345, 346, 347, 348, 349, 350, 351, 352, 353, 354, 355, 356, 357, 358, 359, 360, 361, 362, 363, 364, 365, 366, 367, 368, 369, 370, 371, 372, 373],
      "AcquisitionTime": ["153413.927500", "153415.207500", "153416.487500", "153417.767500", "153419.047500", "153420.327500", "153421.607500", "153422.887500", "153424.167500", "153425.447500", "153426.727500", "153428.007500", "153429.287500", "153430.567500", "153431.847500", "153433.127500", "153434.407500", "153435.687500", "153436.967500", "153438.247500", "153439.527500", "153440.807500", "153442.087500", "153443.367500", "153444.647500", "153445.927500", "153447.207500", "153448.487500", "153449.767500", "153451.047500", "153452.327500", "153453.607500", "153454.887500", "153456.167500", "153457.447500", "153458.727500", "153500.007500", "153501.287500", "153502.567500", "153503.847500", "153505.127500", "153506.407500", "153507.687500", "153508.967500", "153510.247500", "153511.527500", "153512.807500", "153514.087500", "153515.367500", "153516.647500", "153517.927500", "153519.207500", "153520.487500", "153521.767500", "153523.047500", "153524.327500", "153525.607500", "153526.887500", "153528.167500", "153529.447500", "153530.727500", "153532.007500", "153533.287500", "153534.567500", "153535.847500", "153537.127500", "153538.407500", "153539.687500", "153540.967500", "153542.247500", "153543.527500", "153544.807500", "153546.087500", "153547.367500", "153548.647500", "153549.927500", "153551.207500", "153552.487500", "153553.767500", "153555.047500", "153556.327500", "153557.607500", "153558.887500", "153600.167500", "153601.447500", "153602.727500", "153604.007500", "153605.287500", "153606.567500", "153607.847500", "153609.127500", "153610.407500", "153611.687500", "153612.967500", "153614.247500", "153615.527500", "153616.807500", "153618.087500", "153619.367500", "153620.647500", "153621.927500", "153623.207500", "153624.487500", "153625.767500", "153627.047500", "153628.327500", "153629.607500", "153630.887500", "153632.167500", "153633.447500", "153634.727500", "153636.007500", "153637.287500", "153638.567500", "153639.847500", "153641.127500", "153642.407500", "153643.687500", "153644.967500", "153646.247500", "153647.527500", "153648.807500", "153650.087500", "153651.367500", "153652.647500", "153653.927500", "153655.207500", "153656.487500", "153657.767500", "153659.047500", "153700.327500", "153701.607500", "153702.887500", "153704.167500", "153705.447500", "153706.727500", "153708.007500", "153709.287500", "153710.567500", "153711.847500", "153713.127500", "153714.407500", "153715.687500", "153716.967500", "153718.247500", "153719.527500", "153720.807500", "153722.087500", "153723.367500", "153724.647500", "153725.927500", "153727.207500", "153728.487500", "153729.767500", "153731.047500", "153732.327500", "153733.607500", "153734.887500", "153736.167500", "153737.447500", "153738.727500", "153740.007500", "153741.287500", "153742.567500", "153743.847500", "153745.127500", "153746.407500", "153747.687500", "153748.967500", "153750.247500", "153751.527500", "153752.807500", "153754.087500", "153755.367500", "153756.647500", "153757.927500", "153759.207500", "153800.487500", "153801.767500", "153803.047500", "153804.327500", "153805.607500", "153806.887500", "153808.167500", "153809.447500", "153810.727500", "153812.007500", "153813.287500", "153814.567500", "153815.847500", "153817.127500", "153818.407500", "153819.687500", "153820.967500", "153822.247500", "153823.527500", "153824.807500", "153826.087500", "153827.367500", "153828.647500", "153829.927500", "153831.207500", "153832.487500", "153833.767500", "153835.047500", "153836.327500", "153837.607500", "153838.887500", "153840.167500", "153841.447500", "153842.727500", "153844.007500", "153845.287500", "153846.567500", "153847.847500", "153849.127500", "153850.407500", "153851.687500", "153852.967500", "153854.247500", "153855.527500", "153856.807500", "153858.087500", "153859.367500", "153900.647500", "153901.927500", "153903.207500", "153904.487500", "153905.767500", "153907.047500", "153908.327500", "153909.607500", "153910.887500", "153912.167500", "153913.447500", "153914.727500", "153916.007500", "153917.287500", "153918.567500", "153919.847500", "153921.127500", "153922.407500", "153923.687500", "153924.967500", "153926.247500", "153927.527500", "153928.807500", "153930.087500", "153931.367500", "153932.647500", "153933.927500", "153935.207500", "153936.487500", "153937.767500", "153939.047500", "153940.327500", "153941.607500", "153942.887500", "153944.167500", "153945.447500", "153946.727500", "153948.007500", "153949.287500", "153950.567500", "153951.847500", "153953.127500", "153954.407500", "153955.687500", "153956.967500", "153958.247500", "153959.527500", "154000.807500", "154002.087500", "154003.367500", "154004.647500", "154005.927500", "154007.207500", "154008.487500", "154009.767500", "154011.047500", "154012.327500", "154013.607500", "154014.887500", "154016.167500", "154017.447500", "154018.727500", "154020.007500", "154021.287500", "154022.567500", "154023.847500", "154025.127500", "154026.407500", "154027.687500", "154028.967500", "154030.247500", "154031.527500", "154032.807500", "154034.087500", "154035.367500", "154036.647500", "154037.927500", "154039.207500", "154040.487500", "154041.767500", "154043.047500", "154044.327500", "154045.607500", "154046.887500", "154048.167500", "154049.447500", "154050.727500", "154052.007500", "154053.287500", "154054.567500", "154055.847500", "154057.127500", "154058.407500", "154059.687500", "154100.967500", "154102.247500", "154103.527500", "154104.807500", "154106.087500", "154107.367500", "154108.647500", "154109.927500", "154111.207500", "154112.487500", "154113.767500", "154115.047500", "154116.327500", "154117.607500", "154118.887500", "154120.167500", "154121.447500", "154122.727500", "154124.007500", "154125.287500", "154126.567500", "154127.847500", "154129.127500", "154130.407500", "154131.687500", "154132.967500", "154134.247500", "154135.527500", "154136.807500", "154138.087500", "154139.367500", "154140.647500", "154141.927500", "154143.207500", "154144.487500", "154145.767500", "154147.047500", "154148.327500", "154149.607500", "154150.887500", "154152.167500", "154153.447500", "154154.727500", "154156.007500", "154157.287500", "154158.567500", "154159.847500", "154201.127500", "154202.407500", "154203.687500", "154204.967500", "154206.247500", "154207.527500", "154208.807500", "154210.087500"],
      "ContentTime": ["153457.062000", "153457.066000", "153457.069000", "153457.072000", "153457.075000", "153457.077000", "153457.080000", "153457.083000", "153457.086000", "153457.089000", "153457.092000", "153457.095000", "153457.098000", "153457.101000", "153457.104000", "153457.107000", "153457.117000", "153457.120000", "153457.123000", "153457.126000", "153457.129000", "153457.132000", "153457.135000", "153457.142000", "153457.145000", "153457.148000", "153457.151000", "153457.154000", "153457.157000", "153457.166000", "153457.169000", "153457.172000", "153457.175000", "153537.050000", "153537.053000", "153537.056000", "153537.059000", "153537.062000", "153537.065000", "153537.078000", "153537.081000", "153537.084000", "153537.087000", "153537.090000", "153537.093000", "153537.096000", "153537.099000", "153537.102000", "153537.105000", "153537.108000", "153537.111000", "153537.114000", "153537.117000", "153537.120000", "153537.123000", "153537.126000", "153537.129000", "153537.132000", "153537.134000", "153537.137000", "153537.140000", "153537.143000", "153537.146000", "153537.149000", "153617.051000", "153617.054000", "153617.057000", "153617.060000", "153617.063000", "153617.066000", "153617.069000", "153617.072000", "153617.075000", "153617.078000", "153617.081000", "153617.087000", "153617.092000", "153617.095000", "153617.098000", "153617.101000", "153617.104000", "153617.107000", "153617.110000", "153617.113000", "153617.129000", "153617.132000", "153617.135000", "153617.138000", "153617.141000", "153617.144000", "153617.147000", "153617.150000", "153617.153000", "153617.156000", "153617.159000", "153657.051000", "153657.054000", "153657.063000", "153657.066000", "153657.069000", "153657.072000", "153657.075000", "153657.078000", "153657.081000", "153657.084000", "153657.087000", "153657.090000", "153657.093000", "153657.096000", "153657.099000", "153657.102000", "153657.105000", "153657.107000", "153657.110000", "153657.113000", "153657.116000", "153657.119000", "153657.122000", "153657.125000", "153657.128000", "153657.131000", "153657.134000", "153657.137000", "153657.140000", "153657.143000", "153657.146000", "153657.149000", "153737.050000", "153737.053000", "153737.056000", "153737.059000", "153737.062000", "153737.065000", "153737.068000", "153737.071000", "153737.074000", "153737.077000", "153737.080000", "153737.083000", "153737.086000", "153737.089000", "153737.092000", "153737.095000", "153737.098000", "153737.100000", "153737.103000", "153737.106000", "153737.109000", "153737.112000", "153737.115000", "153737.118000", "153737.121000", "153737.124000", "153737.127000", "153737.130000", "153737.133000", "153737.136000", "153737.139000", "153817.051000", "153817.054000", "153817.057000", "153817.060000", "153817.063000", "153817.066000", "153817.069000", "153817.072000", "153817.075000", "153817.078000", "153817.081000", "153817.084000", "153817.087000", "153817.090000", "153817.093000", "153817.095000", "153817.098000", "153817.101000", "153817.104000", "153817.107000", "153817.110000", "153817.113000", "153817.116000", "153817.119000", "153817.122000", "153817.125000", "153817.128000", "153817.131000", "153817.134000", "153817.137000", "153817.140000", "153857.051000", "153857.054000", "153857.057000", "153857.060000", "153857.063000", "153857.066000", "153857.069000", "153857.072000", "153857.075000", "153857.078000", "153857.081000", "153857.084000", "153857.087000", "153857.090000", "153857.093000", "153857.108000", "153857.112000", "153857.115000", "153857.117000", "153857.120000", "153857.123000", "153857.126000", "153857.129000", "153857.133000", "153857.147000", "153857.150000", "153857.153000", "153857.155000", "153857.159000", "153857.161000", "153857.164000", "153937.051000", "153937.054000", "153937.057000", "153937.060000", "153937.063000", "153937.066000", "153937.069000", "153937.072000", "153937.075000", "153937.078000", "153937.081000", "153937.084000", "153937.087000", "153937.094000", "153937.097000", "153937.100000", "153937.103000", "153937.106000", "153937.109000", "153937.112000", "153937.115000", "153937.118000", "153937.121000", "153937.124000", "153937.127000", "153937.130000", "153937.133000", "153937.136000", "153937.139000", "153937.142000", "153937.145000", "153937.147000", "154017.050000", "154017.053000", "154017.056000", "154017.059000", "154017.062000", "154017.065000", "154017.068000", "154017.071000", "154017.074000", "154017.077000", "154017.080000", "154017.083000", "154017.086000", "154017.089000", "154017.092000", "154017.095000", "154017.098000", "154017.101000", "154017.104000", "154017.107000", "154017.110000", "154017.113000", "154017.116000", "154017.119000", "154017.122000", "154017.125000", "154017.128000", "154017.131000", "154017.134000", "154017.137000", "154017.140000", "154057.051000", "154057.054000", "154057.057000", "154057.060000", "154057.063000", "154057.066000", "154057.069000", "154057.072000", "154057.075000", "154057.078000", "154057.081000", "154057.084000", "154057.087000", "154057.090000", "154057.093000", "154057.096000", "154057.099000", "154057.102000", "154057.105000", "154057.108000", "154057.110000", "154057.113000", "154057.116000", "154057.119000", "154057.122000", "154057.125000", "154057.128000", "154057.131000", "154057.134000", "154057.137000", "154057.140000", "154137.051000", "154137.055000", "154137.058000", "154137.061000", "154137.064000", "154137.067000", "154137.070000", "154137.073000", "154137.076000", "154137.079000", "154137.082000", "154137.085000", "154137.089000", "154137.093000", "154137.096000", "154137.099000", "154137.103000", "154137.106000", "154137.109000", "154137.112000", "154137.114000", "154137.117000", "154137.120000", "154137.123000", "154137.126000", "154137.129000", "154137.132000", "154137.135000", "154137.138000", "154137.141000", "154137.144000", "154211.642000", "154211.645000", "154211.648000", "154211.651000", "154211.654000", "154211.657000", "154211.660000", "154211.663000", "154211.666000", "154211.669000", "154211.672000", "154211.675000", "154211.678000", "154211.681000", "154211.683000", "154211.686000", "154211.689000", "154211.692000", "154211.695000", "154211.698000", "154211.701000", "154211.704000", "154211.707000", "154211.710000", "154211.713000", "154211.716000", "154211.719000", "154211.721000"],
      "InstanceCreationTime": ["153457.062000", "153457.066000", "153457.069000", "153457.072000", "153457.075000", "153457.077000", "153457.080000", "153457.083000", "153457.086000", "153457.089000", "153457.092000", "153457.095000", "153457.098000", "153457.101000", "153457.104000", "153457.107000", "153457.117000", "153457.120000", "153457.123000", "153457.126000", "153457.129000", "153457.132000", "153457.135000", "153457.142000", "153457.145000", "153457.148000", "153457.151000", "153457.154000", "153457.157000", "153457.166000", "153457.169000", "153457.172000", "153457.175000", "153537.050000", "153537.053000", "153537.056000", "153537.059000", "153537.062000", "153537.065000", "153537.078000", "153537.081000", "153537.084000", "153537.087000", "153537.090000", "153537.093000", "153537.096000", "153537.099000", "153537.102000", "153537.105000", "153537.108000", "153537.111000", "153537.114000", "153537.117000", "153537.120000", "153537.123000", "153537.126000", "153537.129000", "153537.132000", "153537.134000", "153537.137000", "153537.140000", "153537.143000", "153537.146000", "153537.149000", "153617.051000", "153617.054000", "153617.057000", "153617.060000", "153617.063000", "153617.066000", "153617.069000", "153617.072000", "153617.075000", "153617.078000", "153617.081000", "153617.087000", "153617.092000", "153617.095000", "153617.098000", "153617.101000", "153617.104000", "153617.107000", "153617.110000", "153617.113000", "153617.129000", "153617.132000", "153617.135000", "153617.138000", "153617.141000", "153617.144000", "153617.147000", "153617.150000", "153617.153000", "153617.156000", "153617.159000", "153657.051000", "153657.054000", "153657.063000", "153657.066000", "153657.069000", "153657.072000", "153657.075000", "153657.078000", "153657.081000", "153657.084000", "153657.087000", "153657.090000", "153657.093000", "153657.096000", "153657.099000", "153657.102000", "153657.105000", "153657.107000", "153657.110000", "153657.113000", "153657.116000", "153657.119000", "153657.122000", "153657.125000", "153657.128000", "153657.131000", "153657.134000", "153657.137000", "153657.140000", "153657.143000", "153657.146000", "153657.149000", "153737.050000", "153737.053000", "153737.056000", "153737.059000", "153737.062000", "153737.065000", "153737.068000", "153737.071000", "153737.074000", "153737.077000", "153737.080000", "153737.083000", "153737.086000", "153737.089000", "153737.092000", "153737.095000", "153737.098000", "153737.100000", "153737.103000", "153737.106000", "153737.109000", "153737.112000", "153737.115000", "153737.118000", "153737.121000", "153737.124000", "153737.127000", "153737.130000", "153737.133000", "153737.136000", "153737.139000", "153817.051000", "153817.054000", "153817.057000", "153817.060000", "153817.063000", "153817.066000", "153817.069000", "153817.072000", "153817.075000", "153817.078000", "153817.081000", "153817.084000", "153817.087000", "153817.090000", "153817.093000", "153817.095000", "153817.098000", "153817.101000", "153817.104000", "153817.107000", "153817.110000", "153817.113000", "153817.116000", "153817.119000", "153817.122000", "153817.125000", "153817.128000", "153817.131000", "153817.134000", "153817.137000", "153817.140000", "153857.051000", "153857.054000", "153857.057000", "153857.060000", "153857.063000", "153857.066000", "153857.069000", "153857.072000", "153857.075000", "153857.078000", "153857.081000", "153857.084000", "153857.087000", "153857.090000", "153857.093000", "153857.108000", "153857.112000", "153857.115000", "153857.117000", "153857.120000", "153857.123000", "153857.126000", "153857.129000", "153857.133000", "153857.147000", "153857.150000", "153857.153000", "153857.155000", "153857.159000", "153857.161000", "153857.164000", "153937.051000", "153937.054000", "153937.057000", "153937.060000", "153937.063000", "153937.066000", "153937.069000", "153937.072000", "153937.075000", "153937.078000", "153937.081000", "153937.084000", "153937.087000", "153937.094000", "153937.097000", "153937.100000", "153937.103000", "153937.106000", "153937.109000", "153937.112000", "153937.115000", "153937.118000", "153937.121000", "153937.124000", "153937.127000", "153937.130000", "153937.133000", "153937.136000", "153937.139000", "153937.142000", "153937.145000", "153937.147000", "154017.050000", "154017.053000", "154017.056000", "154017.059000", "154017.062000", "154017.065000", "154017.068000", "154017.071000", "154017.074000", "154017.077000", "154017.080000", "154017.083000", "154017.086000", "154017.089000", "154017.092000", "154017.095000", "154017.098000", "154017.101000", "154017.104000", "154017.107000", "154017.110000", "154017.113000", "154017.116000", "154017.119000", "154017.122000", "154017.125000", "154017.128000", "154017.131000", "154017.134000", "154017.137000", "154017.140000", "154057.051000", "154057.054000", "154057.057000", "154057.060000", "154057.063000", "154057.066000", "154057.069000", "154057.072000", "154057.075000", "154057.078000", "154057.081000", "154057.084000", "154057.087000", "154057.090000", "154057.093000", "154057.096000", "154057.099000", "154057.102000", "154057.105000", "154057.108000", "154057.110000", "154057.113000", "154057.116000", "154057.119000", "154057.122000", "154057.125000", "154057.128000", "154057.131000", "154057.134000", "154057.137000", "154057.140000", "154137.051000", "154137.055000", "154137.058000", "154137.061000", "154137.064000", "154137.067000", "154137.070000", "154137.073000", "154137.076000", "154137.079000", "154137.082000", "154137.085000", "154137.089000", "154137.093000", "154137.096000", "154137.099000", "154137.103000", "154137.106000", "154137.109000", "154137.112000", "154137.114000", "154137.117000", "154137.120000", "154137.123000", "154137.126000", "154137.129000", "154137.132000", "154137.135000", "154137.138000", "154137.141000", "154137.144000", "154211.642000", "154211.645000", "154211.648000", "154211.651000", "154211.654000", "154211.657000", "154211.660000", "154211.663000", "154211.666000", "154211.669000", "154211.672000", "154211.675000", "154211.678000", "154211.681000", "154211.683000", "154211.686000", "154211.689000", "154211.692000", "154211.695000", "154211.698000", "154211.701000", "154211.704000", "154211.707000", "154211.710000", "154211.713000", "154211.716000", "154211.719000", "154211.721000"],
      "InstanceNumber": [1, 2, 3, 4, 5, 6, 7, 8, 9, 10, 11, 12, 13, 14, 15, 16, 17, 18, 19, 20, 21, 22, 23, 24, 25, 26, 27, 28, 29, 30, 31, 32, 33, 34, 35, 36, 37, 38, 39, 40, 41, 42, 43, 44, 45, 46, 47, 48, 49, 50, 51, 52, 53, 54, 55, 56, 57, 58, 59, 60, 61, 62, 63, 64, 65, 66, 67, 68, 69, 70, 71, 72, 73, 74, 75, 76, 77, 78, 79, 80, 81, 82, 83, 84, 85, 86, 87, 88, 89, 90, 91, 92, 93, 94, 95, 96, 97, 98, 99, 100, 101, 102, 103, 104, 105, 106, 107, 108, 109, 110, 111, 112, 113, 114, 115, 116, 117, 118, 119, 120, 121, 122, 123, 124, 125, 126, 127, 128, 129, 130, 131, 132, 133, 134, 135, 136, 137, 138, 139, 140, 141, 142, 143, 144, 145, 146, 147, 148, 149, 150, 151, 152, 153, 154, 155, 156, 157, 158, 159, 160, 161, 162, 163, 164, 165, 166, 167, 168, 169, 170, 171, 172, 173, 174, 175, 176, 177, 178, 179, 180, 181, 182, 183, 184, 185, 186, 187, 188, 189, 190, 191, 192, 193, 194, 195, 196, 197, 198, 199, 200, 201, 202, 203, 204, 205, 206, 207, 208, 209, 210, 211, 212, 213, 214, 215, 216, 217, 218, 219, 220, 221, 222, 223, 224, 225, 226, 227, 228, 229, 230, 231, 232, 233, 234, 235, 236, 237, 238, 239, 240, 241, 242, 243, 244, 245, 246, 247, 248, 249, 250, 251, 252, 253, 254, 255, 256, 257, 258, 259, 260, 261, 262, 263, 264, 265, 266, 267, 268, 269, 270, 271, 272, 273, 274, 275, 276, 277, 278, 279, 280, 281, 282, 283, 284, 285, 286, 287, 288, 289, 290, 291, 292, 293, 294, 295, 296, 297, 298, 299, 300, 301, 302, 303, 304, 305, 306, 307, 308, 309, 310, 311, 312, 313, 314, 315, 316, 317, 318, 319, 320, 321, 322, 323, 324, 325, 326, 327, 328, 329, 330, 331, 332, 333, 334, 335, 336, 337, 338, 339, 340, 341, 342, 343, 344, 345, 346, 347, 348, 349, 350, 351, 352, 353, 354, 355, 356, 357, 358, 359, 360, 361, 362, 363, 364, 365, 366, 367, 368, 369, 370, 371, 372, 373],
