{
  "AcquisitionMatrixPE": 108,
  "AcquisitionNumber": 1,
  "AcquisitionTime": "14:57:54.967500",
  "BandwidthPerPixelPhaseEncode": 15.964,
  "BaseResolution": 108,
  "BodyPartExamined": "BRAIN",
  "ConsistencyInfo": "N4_VE11C_LATEST_20160120",
  "ConversionSoftware": "dcm2niix",
  "ConversionSoftwareVersion": "v1.0.20180622 GCC6.3.0",
  "DerivedVendorReportedEchoSpacing": 0.000580009,
  "DeviceSerialNumber": "66054",
  "DwellTime": 2.1e-06,
  "EchoTime": 0.031,
  "EchoTrainLength": 95,
  "EffectiveEchoSpacing": 0.000580009,
  "FlipAngle": 64,
  "ImageOrientationPatientDICOM": [0.998636, -0.052203, 0.000902942, 0.0470945, 0.893176, -0.447234],
  "ImageType": [
    "ORIGINAL",
    "PRIMARY",
    "M",
    "ND",
    "MOSAIC"
],
  "InPlanePhaseEncodingDirectionDICOM": "COL",
  "InstitutionAddress": "Chemin_des_Mines_9_Geneve_District_CH_1211",
  "InstitutionName": "Fondation_Campus_Biotech_Geneva",
  "InstitutionalDepartmentName": "Department",
  "MRAcquisitionType": "2D",
  "MagneticFieldStrength": 3,
  "Manufacturer": "Siemens",
  "ManufacturersModelName": "Prisma",
  "Modality": "MR",
  "MultibandAccelerationFactor": 4,
  "PartialFourier": 0.875,
  "PatientPosition": "HFS",
  "PercentPhaseFOV": 100,
  "PhaseEncodingDirection": "j-",
  "PhaseEncodingSteps": 95,
  "PhaseResolution": 1,
  "PixelBandwidth": 2205,
  "ProcedureStepDescription": "J.DRM_Michael",
  "ProtocolName": "Run3_bold_s4_TR1.28",
  "PulseSequenceDetails": "%SiemensSeq%_ep2d_bold",
  "ReceiveCoilActiveElements": "HC1-7;NC1,2",
  "ReceiveCoilName": "HeadNeck_64",
  "ReconMatrixPE": 108,
  "RepetitionTime": 1.28,
  "SAR": 0.0740076,
  "ScanOptions": "PFP_FS",
  "ScanningSequence": "EP",
  "SequenceName": "_epfid2d1_108",
  "SequenceVariant": "SK",
  "SeriesDescription": "Run3_bold_s4_TR1.28",
  "SeriesNumber": 8,
  "ShimSetting": [-1254, -11665, 6465, 671, 116, -137, -39, 65],
  "SliceThickness": 2,
  "SliceTiming": [0.945, 0, 0.63, 0.08, 0.71, 0.1575, 0.7875, 0.2375, 0.8675, 0.395, 1.025, 0.4725, 1.1025, 0.5525, 1.1825, 0.315, 0.945, 0, 0.63, 0.08, 0.71, 0.1575, 0.7875, 0.2375, 0.8675, 0.395, 1.025, 0.4725, 1.1025, 0.5525, 1.1825, 0.315, 0.945, 0, 0.63, 0.08, 0.71, 0.1575, 0.7875, 0.2375, 0.8675, 0.395, 1.025, 0.4725, 1.1025, 0.5525, 1.1825, 0.315, 0.945, 0, 0.63, 0.08, 0.71, 0.1575, 0.7875, 0.2375, 0.8675, 0.395, 1.025, 0.4725, 1.1025, 0.5525, 1.1825, 0.315],
  "SoftwareVersions": "syngo_MR_E11",
  "SpacingBetweenSlices": 2,
  "StationName": "AWP66054",
  "TaskName": "main",
  "TotalReadoutTime": 0.0620609,
  "TxRefAmp": 274.085,
  "dcmmeta_affine": [
    [-1.9880255460739136, 0.093752920627594, -0.04508092626929283, 102.749755859375],
    [0.10392254590988159, 1.7780821323394775, -0.8933336734771729, -71.95059967041016],
    [0.0017975239316001534, 0.890327513217926, 1.7888327836990356, -98.46207427978516],
    [0.0, 0.0, 0.0, 1.0]
],
  "dcmmeta_reorient_transform": [
    [0.0, -1.0, 0.0, 107.0],
    [1.0, 0.0, 0.0, 0.0],
    [0.0, 0.0, 1.0, 0.0],
    [0.0, 0.0, 0.0, 1.0]
],
  "dcmmeta_shape": [108, 108, 64, 373],
  "dcmmeta_slice_dim": 2,
  "dcmmeta_version": 0.6,
  "global": {
    "const": {
      "AccessionNumber": "",
      "AcquisitionMatrix": [108, 0, 0, 108],
      "AngioFlag": "N",
      "BitsAllocated": 16,
      "BitsStored": 12,
      "BodyPartExamined": "BRAIN",
      "Columns": 864,
      "EchoNumbers": 1,
      "EchoTime": 31.0,
      "EchoTrainLength": 95,
      "FlipAngle": 64.0,
      "HighBit": 11,
      "ImageOrientationPatient": [0.99863608812452, -0.0522029519347, 0.00090294222584, 0.04709449007296, 0.89317613059765, -0.4472342884165],
      "ImagePositionPatient": [-899.69359282134, -751.13652076214, 332.66731789744],
      "ImageType": [
        "ORIGINAL",
        "PRIMARY",
        "M",
        "ND",
        "MOSAIC"
],
      "ImagedNucleus": "1H",
      "ImagingFrequency": 123.257387,
      "InPlanePhaseEncodingDirection": "COL",
      "MRAcquisitionType": "2D",
      "MagneticFieldStrength": 3.0,
      "Manufacturer": "SIEMENS",
      "ManufacturerModelName": "Prisma",
      "Modality": "MR",
      "NumberOfAverages": 1.0,
      "NumberOfPhaseEncodingSteps": 95,
      "PercentPhaseFieldOfView": 100.0,
      "PercentSampling": 100.0,
      "PerformedProcedureStepStartTime": "143014.434000",
      "PhotometricInterpretation": "MONOCHROME2",
      "PixelBandwidth": 2205.0,
      "PixelRepresentation": 0,
      "PixelSpacing": [1.990740776062, 1.990740776062],
      "PositionReferenceIndicator": "",
      "ProtocolName": "Run3_bold_s4_TR1.28",
      "RepetitionTime": 1280.0,
      "Rows": 864,
      "SAR": 0.07400764725068,
      "SamplesPerPixel": 1,
      "ScanOptions": [
        "PFP",
        "FS"
],
      "ScanningSequence": "EP",
      "SequenceName": "*epfid2d1_108",
      "SequenceVariant": "SK",
      "SeriesDescription": "Run3_bold_s4_TR1.28",
      "SeriesNumber": 8,
      "SeriesTime": "145833.836000",
      "SliceLocation": -58.244173677872,
      "SliceThickness": 2.0,
      "SmallestImagePixelValue": 0,
      "SoftwareVersions": "syngo MR E11",
      "SpacingBetweenSlices": 1.9999999931555,
      "SpecificCharacterSet": "ISO_IR 100",
      "StudyID": "1",
      "StudyTime": "143014.368000",
      "TransmitCoilName": "Body",
      "VariableFlipAngleFlag": "N",
      "WindowCenterWidthExplanation": "Algo1",
      "dBdt": 0.0},
    "slices": {}
  },
  "time": {
    "samples": {
      "AcquisitionNumber": [1, 2, 3, 4, 5, 6, 7, 8, 9, 10, 11, 12, 13, 14, 15, 16, 17, 18, 19, 20, 21, 22, 23, 24, 25, 26, 27, 28, 29, 30, 31, 32, 33, 34, 35, 36, 37, 38, 39, 40, 41, 42, 43, 44, 45, 46, 47, 48, 49, 50, 51, 52, 53, 54, 55, 56, 57, 58, 59, 60, 61, 62, 63, 64, 65, 66, 67, 68, 69, 70, 71, 72, 73, 74, 75, 76, 77, 78, 79, 80, 81, 82, 83, 84, 85, 86, 87, 88, 89, 90, 91, 92, 93, 94, 95, 96, 97, 98, 99, 100, 101, 102, 103, 104, 105, 106, 107, 108, 109, 110, 111, 112, 113, 114, 115, 116, 117, 118, 119, 120, 121, 122, 123, 124, 125, 126, 127, 128, 129, 130, 131, 132, 133, 134, 135, 136, 137, 138, 139, 140, 141, 142, 143, 144, 145, 146, 147, 148, 149, 150, 151, 152, 153, 154, 155, 156, 157, 158, 159, 160, 161, 162, 163, 164, 165, 166, 167, 168, 169, 170, 171, 172, 173, 174, 175, 176, 177, 178, 179, 180, 181, 182, 183, 184, 185, 186, 187, 188, 189, 190, 191, 192, 193, 194, 195, 196, 197, 198, 199, 200, 201, 202, 203, 204, 205, 206, 207, 208, 209, 210, 211, 212, 213, 214, 215, 216, 217, 218, 219, 220, 221, 222, 223, 224, 225, 226, 227, 228, 229, 230, 231, 232, 233, 234, 235, 236, 237, 238, 239, 240, 241, 242, 243, 244, 245, 246, 247, 248, 249, 250, 251, 252, 253, 254, 255, 256, 257, 258, 259, 260, 261, 262, 263, 264, 265, 266, 267, 268, 269, 270, 271, 272, 273, 274, 275, 276, 277, 278, 279, 280, 281, 282, 283, 284, 285, 286, 287, 288, 289, 290, 291, 292, 293, 294, 295, 296, 297, 298, 299, 300, 301, 302, 303, 304, 305, 306, 307, 308, 309, 310, 311, 312, 313, 314, 315, 316, 317, 318, 319, 320, 321, 322, 323, 324, 325, 326, 327, 328, 329, 330, 331, 332, 333, 334, 335, 336, 337, 338, 339, 340, 341, 342, 343, 344, 345, 346, 347, 348, 349, 350, 351, 352, 353, 354, 355, 356, 357, 358, 359, 360, 361, 362, 363, 364, 365, 366, 367, 368, 369, 370, 371, 372, 373],
      "AcquisitionTime": ["145754.967500", "145756.247500", "145757.527500", "145758.807500", "145800.087500", "145801.367500", "145802.647500", "145803.927500", "145805.207500", "145806.487500", "145807.767500", "145809.047500", "145810.327500", "145811.607500", "145812.887500", "145814.167500", "145815.447500", "145816.727500", "145818.007500", "145819.287500", "145820.567500", "145821.847500", "145823.127500", "145824.407500", "145825.687500", "145826.967500", "145828.247500", "145829.527500", "145830.807500", "145832.087500", "145833.367500", "145834.647500", "145835.927500", "145837.207500", "145838.487500", "145839.767500", "145841.047500", "145842.327500", "145843.607500", "145844.887500", "145846.167500", "145847.447500", "145848.727500", "145850.007500", "145851.287500", "145852.567500", "145853.847500", "145855.127500", "145856.407500", "145857.687500", "145858.967500", "145900.247500", "145901.527500", "145902.807500", "145904.087500", "145905.367500", "145906.647500", "145907.927500", "145909.207500", "145910.487500", "145911.767500", "145913.047500", "145914.327500", "145915.607500", "145916.887500", "145918.167500", "145919.447500", "145920.727500", "145922.007500", "145923.287500", "145924.567500", "145925.847500", "145927.127500", "145928.407500", "145929.687500", "145930.967500", "145932.247500", "145933.527500", "145934.807500", "145936.087500", "145937.367500", "145938.647500", "145939.927500", "145941.207500", "145942.487500", "145943.767500", "145945.047500", "145946.327500", "145947.607500", "145948.887500", "145950.167500", "145951.447500", "145952.727500", "145954.007500", "145955.287500", "145956.567500", "145957.847500", "145959.127500", "150000.407500", "150001.687500", "150002.967500", "150004.247500", "150005.527500", "150006.807500", "150008.087500", "150009.367500", "150010.647500", "150011.927500", "150013.207500", "150014.487500", "150015.767500", "150017.047500", "150018.327500", "150019.607500", "150020.887500", "150022.167500", "150023.447500", "150024.727500", "150026.007500", "150027.287500", "150028.567500", "150029.847500", "150031.127500", "150032.407500", "150033.687500", "150034.967500", "150036.247500", "150037.527500", "150038.807500", "150040.087500", "150041.367500", "150042.647500", "150043.927500", "150045.207500", "150046.487500", "150047.767500", "150049.047500", "150050.327500", "150051.607500", "150052.887500", "150054.167500", "150055.447500", "150056.727500", "150058.007500", "150059.287500", "150100.567500", "150101.847500", "150103.127500", "150104.407500", "150105.687500", "150106.967500", "150108.247500", "150109.527500", "150110.807500", "150112.087500", "150113.367500", "150114.647500", "150115.927500", "150117.207500", "150118.487500", "150119.767500", "150121.047500", "150122.327500", "150123.607500", "150124.887500", "150126.167500", "150127.447500", "150128.727500", "150130.007500", "150131.287500", "150132.567500", "150133.847500", "150135.127500", "150136.407500", "150137.687500", "150138.967500", "150140.247500", "150141.527500", "150142.807500", "150144.087500", "150145.367500", "150146.647500", "150147.927500", "150149.207500", "150150.487500", "150151.767500", "150153.047500", "150154.327500", "150155.607500", "150156.887500", "150158.167500", "150159.447500", "150200.727500", "150202.007500", "150203.287500", "150204.567500", "150205.847500", "150207.127500", "150208.407500", "150209.687500", "150210.967500", "150212.247500", "150213.527500", "150214.807500", "150216.087500", "150217.367500", "150218.647500", "150219.927500", "150221.207500", "150222.487500", "150223.767500", "150225.047500", "150226.327500", "150227.607500", "150228.887500", "150230.167500", "150231.447500", "150232.727500", "150234.007500", "150235.287500", "150236.567500", "150237.847500", "150239.127500", "150240.407500", "150241.687500", "150242.967500", "150244.247500", "150245.527500", "150246.807500", "150248.087500", "150249.367500", "150250.647500", "150251.927500", "150253.207500", "150254.487500", "150255.767500", "150257.047500", "150258.327500", "150259.607500", "150300.887500", "150302.167500", "150303.447500", "150304.727500", "150306.007500", "150307.287500", "150308.567500", "150309.847500", "150311.127500", "150312.407500", "150313.687500", "150314.967500", "150316.247500", "150317.527500", "150318.807500", "150320.087500", "150321.367500", "150322.647500", "150323.927500", "150325.207500", "150326.487500", "150327.767500", "150329.047500", "150330.327500", "150331.607500", "150332.887500", "150334.167500", "150335.447500", "150336.727500", "150338.007500", "150339.287500", "150340.567500", "150341.847500", "150343.127500", "150344.407500", "150345.687500", "150346.967500", "150348.247500", "150349.527500", "150350.807500", "150352.087500", "150353.367500", "150354.647500", "150355.927500", "150357.207500", "150358.487500", "150359.767500", "150401.047500", "150402.327500", "150403.607500", "150404.887500", "150406.167500", "150407.447500", "150408.727500", "150410.007500", "150411.287500", "150412.567500", "150413.847500", "150415.127500", "150416.407500", "150417.687500", "150418.967500", "150420.247500", "150421.527500", "150422.807500", "150424.087500", "150425.367500", "150426.647500", "150427.927500", "150429.207500", "150430.487500", "150431.767500", "150433.047500", "150434.327500", "150435.607500", "150436.887500", "150438.167500", "150439.447500", "150440.727500", "150442.007500", "150443.287500", "150444.567500", "150445.847500", "150447.127500", "150448.407500", "150449.687500", "150450.967500", "150452.247500", "150453.527500", "150454.807500", "150456.087500", "150457.367500", "150458.647500", "150459.927500", "150501.207500", "150502.487500", "150503.767500", "150505.047500", "150506.327500", "150507.607500", "150508.887500", "150510.167500", "150511.447500", "150512.727500", "150514.007500", "150515.287500", "150516.567500", "150517.847500", "150519.127500", "150520.407500", "150521.687500", "150522.967500", "150524.247500", "150525.527500", "150526.807500", "150528.087500", "150529.367500", "150530.647500", "150531.927500", "150533.207500", "150534.487500", "150535.767500", "150537.047500", "150538.327500", "150539.607500", "150540.887500", "150542.167500", "150543.447500", "150544.727500", "150546.007500", "150547.287500", "150548.567500", "150549.847500", "150551.127500"],
      "ContentTime": ["145833.840000", "145833.843000", "145833.856000", "145833.859000", "145833.862000", "145833.871000", "145833.878000", "145833.881000", "145833.884000", "145833.887000", "145833.890000", "145833.893000", "145833.896000", "145833.899000", "145833.902000", "145833.905000", "145833.908000", "145833.911000", "145833.914000", "145833.917000", "145833.920000", "145833.923000", "145833.926000", "145833.929000", "145833.932000", "145833.935000", "145833.938000", "145833.941000", "145833.944000", "145833.953000", "145913.837000", "145913.840000", "145913.843000", "145913.846000", "145913.849000", "145913.852000", "145913.855000", "145913.858000", "145913.861000", "145913.872000", "145913.875000", "145913.877000", "145913.880000", "145913.884000", "145913.887000", "145913.890000", "145913.892000", "145913.896000", "145913.898000", "145913.901000", "145913.904000", "145913.907000", "145913.910000", "145913.913000", "145913.916000", "145913.919000", "145913.922000", "145913.925000", "145913.928000", "145913.938000", "145913.941000", "145953.835000", "145953.838000", "145953.841000", "145953.844000", "145953.847000", "145953.850000", "145953.853000", "145953.856000", "145953.859000", "145953.862000", "145953.865000", "145953.868000", "145953.870000", "145953.873000", "145953.876000", "145953.879000", "145953.882000", "145953.885000", "145953.888000", "145953.891000", "145953.894000", "145953.897000", "145953.900000", "145953.903000", "145953.906000", "145953.915000", "145953.918000", "145953.921000", "145953.928000", "145953.931000", "145953.934000", "150033.835000", "150033.838000", "150033.841000", "150033.844000", "150033.847000", "150033.850000", "150033.853000", "150033.856000", "150033.859000", "150033.861000", "150033.864000", "150033.867000", "150033.870000", "150033.873000", "150033.876000", "150033.879000", "150033.882000", "150033.885000", "150033.888000", "150033.891000", "150033.894000", "150033.897000", "150033.900000", "150033.912000", "150033.915000", "150033.918000", "150033.920000", "150033.923000", "150033.926000", "150033.929000", "150033.932000", "150033.935000", "150113.835000", "150113.838000", "150113.841000", "150113.844000", "150113.847000", "150113.850000", "150113.853000", "150113.856000", "150113.859000", "150113.862000", "150113.865000", "150113.867000", "150113.870000", "150113.873000", "150113.876000", "150113.879000", "150113.882000", "150113.886000", "150113.888000", "150113.891000", "150113.894000", "150113.897000", "150113.900000", "150113.903000", "150113.906000", "150113.909000", "150113.912000", "150113.915000", "150113.918000", "150113.921000", "150113.924000", "150133.836000", "150133.841000", "150133.852000", "150133.855000", "150133.858000", "150133.861000", "150133.864000", "150133.867000", "150133.870000", "150133.873000", "150133.876000", "150133.879000", "150133.882000", "150133.885000", "150133.888000", "150213.835000", "150213.838000", "150213.841000", "150213.844000", "150213.847000", "150213.850000", "150213.853000", "150213.856000", "150213.859000", "150213.862000", "150213.865000", "150213.868000", "150213.871000", "150213.874000", "150213.876000", "150213.879000", "150213.882000", "150213.885000", "150213.888000", "150213.891000", "150213.894000", "150213.897000", "150213.900000", "150213.903000", "150213.906000", "150213.909000", "150213.912000", "150213.915000", "150213.918000", "150213.921000", "150213.924000", "150213.927000", "150253.835000", "150253.838000", "150253.841000", "150253.854000", "150253.856000", "150253.859000", "150253.862000", "150253.865000", "150253.868000", "150253.871000", "150253.874000", "150253.877000", "150253.880000", "150253.883000", "150253.886000", "150253.889000", "150253.892000", "150253.895000", "150253.898000", "150253.901000", "150253.904000", "150253.912000", "150253.915000", "150253.918000", "150253.921000", "150253.924000", "150253.927000", "150253.930000", "150253.933000", "150253.936000", "150253.939000", "150333.835000", "150333.838000", "150333.841000", "150333.844000", "150333.847000", "150333.850000", "150333.853000", "150333.856000", "150333.859000", "150333.862000", "150333.865000", "150333.868000", "150333.871000", "150333.874000", "150333.877000", "150333.880000", "150333.883000", "150333.886000", "150333.889000", "150333.892000", "150333.895000", "150333.898000", "150333.901000", "150333.904000", "150333.907000", "150333.910000", "150333.913000", "150333.916000", "150333.919000", "150333.922000", "150333.925000", "150413.835000", "150413.838000", "150413.841000", "150413.845000", "150413.848000", "150413.851000", "150413.854000", "150413.858000", "150413.861000", "150413.864000", "150413.867000", "150413.869000", "150413.872000", "150413.875000", "150413.878000", "150413.881000", "150413.884000", "150413.887000", "150413.890000", "150413.893000", "150413.896000", "150413.899000", "150413.902000", "150413.905000", "150413.908000", "150413.911000", "150413.914000", "150413.917000", "150413.920000", "150413.922000", "150413.925000", "150453.835000", "150453.838000", "150453.841000", "150453.844000", "150453.847000", "150453.850000", "150453.853000", "150453.856000", "150453.859000", "150453.862000", "150453.865000", "150453.881000", "150453.884000", "150453.886000", "150453.889000", "150453.892000", "150453.895000", "150453.898000", "150453.901000", "150453.904000", "150453.907000", "150453.910000", "150453.913000", "150453.916000", "150453.919000", "150453.922000", "150453.925000", "150453.928000", "150453.931000", "150453.934000", "150453.937000", "150453.940000", "150533.835000", "150533.838000", "150533.841000", "150533.844000", "150533.847000", "150533.850000", "150533.853000", "150533.856000", "150533.859000", "150533.862000", "150533.865000", "150533.868000", "150533.871000", "150533.874000", "150533.877000", "150533.880000", "150533.883000", "150533.886000", "150533.889000", "150533.892000", "150533.895000", "150533.898000", "150533.901000", "150533.904000", "150533.906000", "150533.909000", "150533.912000", "150533.915000", "150533.918000", "150533.921000", "150533.924000", "150552.413000", "150552.422000", "150552.427000", "150552.430000", "150552.433000", "150552.436000", "150552.440000", "150552.445000", "150552.449000", "150552.452000", "150552.456000", "150552.460000", "150552.463000", "150552.467000", "150552.470000"],
      "InstanceCreationTime": ["145833.840000", "145833.843000", "145833.856000", "145833.859000", "145833.862000", "145833.871000", "145833.878000", "145833.881000", "145833.884000", "145833.887000", "145833.890000", "145833.893000", "145833.896000", "145833.899000", "145833.902000", "145833.905000", "145833.908000", "145833.911000", "145833.914000", "145833.917000", "145833.920000", "145833.923000", "145833.926000", "145833.929000", "145833.932000", "145833.935000", "145833.938000", "145833.941000", "145833.944000", "145833.953000", "145913.837000", "145913.840000", "145913.843000", "145913.846000", "145913.849000", "145913.852000", "145913.855000", "145913.858000", "145913.861000", "145913.872000", "145913.875000", "145913.877000", "145913.880000", "145913.884000", "145913.887000", "145913.890000", "145913.892000", "145913.896000", "145913.898000", "145913.901000", "145913.904000", "145913.907000", "145913.910000", "145913.913000", "145913.916000", "145913.919000", "145913.922000", "145913.925000", "145913.928000", "145913.938000", "145913.941000", "145953.835000", "145953.838000", "145953.841000", "145953.844000", "145953.847000", "145953.850000", "145953.853000", "145953.856000", "145953.859000", "145953.862000", "145953.865000", "145953.868000", "145953.870000", "145953.873000", "145953.876000", "145953.879000", "145953.882000", "145953.885000", "145953.888000", "145953.891000", "145953.894000", "145953.897000", "145953.900000", "145953.903000", "145953.906000", "145953.915000", "145953.918000", "145953.921000", "145953.928000", "145953.931000", "145953.934000", "150033.835000", "150033.838000", "150033.841000", "150033.844000", "150033.847000", "150033.850000", "150033.853000", "150033.856000", "150033.859000", "150033.861000", "150033.864000", "150033.867000", "150033.870000", "150033.873000", "150033.876000", "150033.879000", "150033.882000", "150033.885000", "150033.888000", "150033.891000", "150033.894000", "150033.897000", "150033.900000", "150033.912000", "150033.915000", "150033.918000", "150033.920000", "150033.923000", "150033.926000", "150033.929000", "150033.932000", "150033.935000", "150113.835000", "150113.838000", "150113.841000", "150113.844000", "150113.847000", "150113.850000", "150113.853000", "150113.856000", "150113.859000", "150113.862000", "150113.865000", "150113.867000", "150113.870000", "150113.873000", "150113.876000", "150113.879000", "150113.882000", "150113.886000", "150113.888000", "150113.891000", "150113.894000", "150113.897000", "150113.900000", "150113.903000", "150113.906000", "150113.909000", "150113.912000", "150113.915000", "150113.918000", "150113.921000", "150113.924000", "150133.836000", "150133.841000", "150133.852000", "150133.855000", "150133.858000", "150133.861000", "150133.864000", "150133.867000", "150133.870000", "150133.873000", "150133.876000", "150133.879000", "150133.882000", "150133.885000", "150133.888000", "150213.835000", "150213.838000", "150213.841000", "150213.844000", "150213.847000", "150213.850000", "150213.853000", "150213.856000", "150213.859000", "150213.862000", "150213.865000", "150213.868000", "150213.871000", "150213.874000", "150213.876000", "150213.879000", "150213.882000", "150213.885000", "150213.888000", "150213.891000", "150213.894000", "150213.897000", "150213.900000", "150213.903000", "150213.906000", "150213.909000", "150213.912000", "150213.915000", "150213.918000", "150213.921000", "150213.924000", "150213.927000", "150253.835000", "150253.838000", "150253.841000", "150253.854000", "150253.856000", "150253.859000", "150253.862000", "150253.865000", "150253.868000", "150253.871000", "150253.874000", "150253.877000", "150253.880000", "150253.883000", "150253.886000", "150253.889000", "150253.892000", "150253.895000", "150253.898000", "150253.901000", "150253.904000", "150253.912000", "150253.915000", "150253.918000", "150253.921000", "150253.924000", "150253.927000", "150253.930000", "150253.933000", "150253.936000", "150253.939000", "150333.835000", "150333.838000", "150333.841000", "150333.844000", "150333.847000", "150333.850000", "150333.853000", "150333.856000", "150333.859000", "150333.862000", "150333.865000", "150333.868000", "150333.871000", "150333.874000", "150333.877000", "150333.880000", "150333.883000", "150333.886000", "150333.889000", "150333.892000", "150333.895000", "150333.898000", "150333.901000", "150333.904000", "150333.907000", "150333.910000", "150333.913000", "150333.916000", "150333.919000", "150333.922000", "150333.925000", "150413.835000", "150413.838000", "150413.841000", "150413.845000", "150413.848000", "150413.851000", "150413.854000", "150413.858000", "150413.861000", "150413.864000", "150413.867000", "150413.869000", "150413.872000", "150413.875000", "150413.878000", "150413.881000", "150413.884000", "150413.887000", "150413.890000", "150413.893000", "150413.896000", "150413.899000", "150413.902000", "150413.905000", "150413.908000", "150413.911000", "150413.914000", "150413.917000", "150413.920000", "150413.922000", "150413.925000", "150453.835000", "150453.838000", "150453.841000", "150453.844000", "150453.847000", "150453.850000", "150453.853000", "150453.856000", "150453.859000", "150453.862000", "150453.865000", "150453.881000", "150453.884000", "150453.886000", "150453.889000", "150453.892000", "150453.895000", "150453.898000", "150453.901000", "150453.904000", "150453.907000", "150453.910000", "150453.913000", "150453.916000", "150453.919000", "150453.922000", "150453.925000", "150453.928000", "150453.931000", "150453.934000", "150453.937000", "150453.940000", "150533.835000", "150533.838000", "150533.841000", "150533.844000", "150533.847000", "150533.850000", "150533.853000", "150533.856000", "150533.859000", "150533.862000", "150533.865000", "150533.868000", "150533.871000", "150533.874000", "150533.877000", "150533.880000", "150533.883000", "150533.886000", "150533.889000", "150533.892000", "150533.895000", "150533.898000", "150533.901000", "150533.904000", "150533.906000", "150533.909000", "150533.912000", "150533.915000", "150533.918000", "150533.921000", "150533.924000", "150552.413000", "150552.422000", "150552.427000", "150552.430000", "150552.433000", "150552.436000", "150552.440000", "150552.445000", "150552.449000", "150552.452000", "150552.456000", "150552.460000", "150552.463000", "150552.467000", "150552.470000"],
      "InstanceNumber": [1, 2, 3, 4, 5, 6, 7, 8, 9, 10, 11, 12, 13, 14, 15, 16, 17, 18, 19, 20, 21, 22, 23, 24, 25, 26, 27, 28, 29, 30, 31, 32, 33, 34, 35, 36, 37, 38, 39, 40, 41, 42, 43, 44, 45, 46, 47, 48, 49, 50, 51, 52, 53, 54, 55, 56, 57, 58, 59, 60, 61, 62, 63, 64, 65, 66, 67, 68, 69, 70, 71, 72, 73, 74, 75, 76, 77, 78, 79, 80, 81, 82, 83, 84, 85, 86, 87, 88, 89, 90, 91, 92, 93, 94, 95, 96, 97, 98, 99, 100, 101, 102, 103, 104, 105, 106, 107, 108, 109, 110, 111, 112, 113, 114, 115, 116, 117, 118, 119, 120, 121, 122, 123, 124, 125, 126, 127, 128, 129, 130, 131, 132, 133, 134, 135, 136, 137, 138, 139, 140, 141, 142, 143, 144, 145, 146, 147, 148, 149, 150, 151, 152, 153, 154, 155, 156, 157, 158, 159, 160, 161, 162, 163, 164, 165, 166, 167, 168, 169, 170, 171, 172, 173, 174, 175, 176, 177, 178, 179, 180, 181, 182, 183, 184, 185, 186, 187, 188, 189, 190, 191, 192, 193, 194, 195, 196, 197, 198, 199, 200, 201, 202, 203, 204, 205, 206, 207, 208, 209, 210, 211, 212, 213, 214, 215, 216, 217, 218, 219, 220, 221, 222, 223, 224, 225, 226, 227, 228, 229, 230, 231, 232, 233, 234, 235, 236, 237, 238, 239, 240, 241, 242, 243, 244, 245, 246, 247, 248, 249, 250, 251, 252, 253, 254, 255, 256, 257, 258, 259, 260, 261, 262, 263, 264, 265, 266, 267, 268, 269, 270, 271, 272, 273, 274, 275, 276, 277, 278, 279, 280, 281, 282, 283, 284, 285, 286, 287, 288, 289, 290, 291, 292, 293, 294, 295, 296, 297, 298, 299, 300, 301, 302, 303, 304, 305, 306, 307, 308, 309, 310, 311, 312, 313, 314, 315, 316, 317, 318, 319, 320, 321, 322, 323, 324, 325, 326, 327, 328, 329, 330, 331, 332, 333, 334, 335, 336, 337, 338, 339, 340, 341, 342, 343, 344, 345, 346, 347, 348, 349, 350, 351, 352, 353, 354, 355, 356, 357, 358, 359, 360, 361, 362, 363, 364, 365, 366, 367, 368, 369, 370, 371, 372, 373],
