{
  "AcquisitionMatrixPE": 108,
  "AcquisitionNumber": 1,
  "AcquisitionTime": "14:33:37.650000",
  "BandwidthPerPixelPhaseEncode": 15.964,
  "BaseResolution": 108,
  "BodyPartExamined": "BRAIN",
  "ConsistencyInfo": "N4_VE11C_LATEST_20160120",
  "ConversionSoftware": "dcm2niix",
  "ConversionSoftwareVersion": "v1.0.20180622 GCC6.3.0",
  "DerivedVendorReportedEchoSpacing": 0.000580009,
  "DeviceSerialNumber": "66054",
  "DwellTime": 2.1e-06,
  "EchoTime": 0.031,
  "EchoTrainLength": 95,
  "EffectiveEchoSpacing": 0.000580009,
  "FlipAngle": 64,
  "ImageOrientationPatientDICOM": [0.998636, -0.052203, 0.000902942, 0.0470945, 0.893176, -0.447234],
  "ImageType": [
    "ORIGINAL",
    "PRIMARY",
    "M",
    "ND",
    "MOSAIC"
],
  "InPlanePhaseEncodingDirectionDICOM": "COL",
  "InstitutionAddress": "Chemin_des_Mines_9_Geneve_District_CH_1211",
  "InstitutionName": "Fondation_Campus_Biotech_Geneva",
  "InstitutionalDepartmentName": "Department",
  "MRAcquisitionType": "2D",
  "MagneticFieldStrength": 3,
  "Manufacturer": "Siemens",
  "ManufacturersModelName": "Prisma",
  "Modality": "MR",
  "MultibandAccelerationFactor": 4,
  "PartialFourier": 0.875,
  "PatientPosition": "HFS",
  "PercentPhaseFOV": 100,
  "PhaseEncodingDirection": "j-",
  "PhaseEncodingSteps": 95,
  "PhaseResolution": 1,
  "PixelBandwidth": 2205,
  "ProcedureStepDescription": "J.DRM_Michael",
  "ProtocolName": "Run1_bold_s4_TR1.28",
  "PulseSequenceDetails": "%SiemensSeq%_ep2d_bold",
  "ReceiveCoilActiveElements": "HC1-7;NC1,2",
  "ReceiveCoilName": "HeadNeck_64",
  "ReconMatrixPE": 108,
  "RepetitionTime": 1.28,
  "SAR": 0.0740076,
  "ScanOptions": "PFP_FS",
  "ScanningSequence": "EP",
  "SequenceName": "_epfid2d1_108",
  "SequenceVariant": "SK",
  "SeriesDescription": "Run1_bold_s4_TR1.28",
  "SeriesNumber": 5,
  "ShimSetting": [-1254, -11665, 6465, 671, 116, -137, -39, 65],
  "SliceThickness": 2,
  "SliceTiming": [0.945, 0, 0.63, 0.08, 0.7075, 0.1575, 0.7875, 0.235, 0.865, 0.3925, 1.0225, 0.4725, 1.1025, 0.55, 1.18, 0.315, 0.945, 0, 0.63, 0.08, 0.7075, 0.1575, 0.7875, 0.235, 0.865, 0.3925, 1.0225, 0.4725, 1.1025, 0.55, 1.18, 0.315, 0.945, 0, 0.63, 0.08, 0.7075, 0.1575, 0.7875, 0.235, 0.865, 0.3925, 1.0225, 0.4725, 1.1025, 0.55, 1.18, 0.315, 0.945, 0, 0.63, 0.08, 0.7075, 0.1575, 0.7875, 0.235, 0.865, 0.3925, 1.0225, 0.4725, 1.1025, 0.55, 1.18, 0.315],
  "SoftwareVersions": "syngo_MR_E11",
  "SpacingBetweenSlices": 2,
  "StationName": "AWP66054",
  "TaskName": "main",
  "TotalReadoutTime": 0.0620609,
  "TxRefAmp": 274.085,
  "dcmmeta_affine": [
    [-1.9880255460739136, 0.093752920627594, -0.04508092626929283, 102.749755859375],
    [0.10392254590988159, 1.7780821323394775, -0.8933336734771729, -71.95059967041016],
    [0.0017975239316001534, 0.890327513217926, 1.7888327836990356, -98.46207427978516],
    [0.0, 0.0, 0.0, 1.0]
],
  "dcmmeta_reorient_transform": [
    [0.0, -1.0, 0.0, 107.0],
    [1.0, 0.0, 0.0, 0.0],
    [0.0, 0.0, 1.0, 0.0],
    [0.0, 0.0, 0.0, 1.0]
],
  "dcmmeta_shape": [108, 108, 64, 373],
  "dcmmeta_slice_dim": 2,
  "dcmmeta_version": 0.6,
  "global": {
    "const": {
      "AccessionNumber": "",
      "AcquisitionMatrix": [108, 0, 0, 108],
      "AngioFlag": "N",
      "BitsAllocated": 16,
      "BitsStored": 12,
      "BodyPartExamined": "BRAIN",
      "Columns": 864,
      "EchoNumbers": 1,
      "EchoTime": 31.0,
      "EchoTrainLength": 95,
      "FlipAngle": 64.0,
      "HighBit": 11,
      "ImageOrientationPatient": [0.99863608812452, -0.0522029519347, 0.00090294222584, 0.04709449007296, 0.89317613059765, -0.4472342884165],
      "ImagePositionPatient": [-899.69359282134, -751.13652076214, 332.66731789744],
      "ImageType": [
        "ORIGINAL",
        "PRIMARY",
        "M",
        "ND",
        "MOSAIC"
],
      "ImagedNucleus": "1H",
      "ImagingFrequency": 123.257367,
      "InPlanePhaseEncodingDirection": "COL",
      "MRAcquisitionType": "2D",
      "MagneticFieldStrength": 3.0,
      "Manufacturer": "SIEMENS",
      "ManufacturerModelName": "Prisma",
      "Modality": "MR",
      "NumberOfAverages": 1.0,
      "NumberOfPhaseEncodingSteps": 95,
      "PercentPhaseFieldOfView": 100.0,
      "PercentSampling": 100.0,
      "PerformedProcedureStepStartTime": "143014.434000",
      "PhotometricInterpretation": "MONOCHROME2",
      "PixelBandwidth": 2205.0,
      "PixelRepresentation": 0,
      "PixelSpacing": [1.990740776062, 1.990740776062],
      "PositionReferenceIndicator": "",
      "ProtocolName": "Run1_bold_s4_TR1.28",
      "RepetitionTime": 1280.0,
      "Rows": 864,
      "SAR": 0.07400764725068,
      "SamplesPerPixel": 1,
      "ScanOptions": [
        "PFP",
        "FS"
],
      "ScanningSequence": "EP",
      "SequenceName": "*epfid2d1_108",
      "SequenceVariant": "SK",
      "SeriesDescription": "Run1_bold_s4_TR1.28",
      "SeriesNumber": 5,
      "SeriesTime": "143413.836000",
      "SliceLocation": -58.244173677872,
      "SliceThickness": 2.0,
      "SmallestImagePixelValue": 0,
      "SoftwareVersions": "syngo MR E11",
      "SpacingBetweenSlices": 1.9999999931555,
      "SpecificCharacterSet": "ISO_IR 100",
      "StudyID": "1",
      "StudyTime": "143014.368000",
      "TransmitCoilName": "Body",
      "VariableFlipAngleFlag": "N",
      "WindowCenterWidthExplanation": "Algo1",
      "dBdt": 0.0},
    "slices": {}
  },
  "time": {
    "samples": {
      "AcquisitionNumber": [1, 2, 3, 4, 5, 6, 7, 8, 9, 10, 11, 12, 13, 14, 15, 16, 17, 18, 19, 20, 21, 22, 23, 24, 25, 26, 27, 28, 29, 30, 31, 32, 33, 34, 35, 36, 37, 38, 39, 40, 41, 42, 43, 44, 45, 46, 47, 48, 49, 50, 51, 52, 53, 54, 55, 56, 57, 58, 59, 60, 61, 62, 63, 64, 65, 66, 67, 68, 69, 70, 71, 72, 73, 74, 75, 76, 77, 78, 79, 80, 81, 82, 83, 84, 85, 86, 87, 88, 89, 90, 91, 92, 93, 94, 95, 96, 97, 98, 99, 100, 101, 102, 103, 104, 105, 106, 107, 108, 109, 110, 111, 112, 113, 114, 115, 116, 117, 118, 119, 120, 121, 122, 123, 124, 125, 126, 127, 128, 129, 130, 131, 132, 133, 134, 135, 136, 137, 138, 139, 140, 141, 142, 143, 144, 145, 146, 147, 148, 149, 150, 151, 152, 153, 154, 155, 156, 157, 158, 159, 160, 161, 162, 163, 164, 165, 166, 167, 168, 169, 170, 171, 172, 173, 174, 175, 176, 177, 178, 179, 180, 181, 182, 183, 184, 185, 186, 187, 188, 189, 190, 191, 192, 193, 194, 195, 196, 197, 198, 199, 200, 201, 202, 203, 204, 205, 206, 207, 208, 209, 210, 211, 212, 213, 214, 215, 216, 217, 218, 219, 220, 221, 222, 223, 224, 225, 226, 227, 228, 229, 230, 231, 232, 233, 234, 235, 236, 237, 238, 239, 240, 241, 242, 243, 244, 245, 246, 247, 248, 249, 250, 251, 252, 253, 254, 255, 256, 257, 258, 259, 260, 261, 262, 263, 264, 265, 266, 267, 268, 269, 270, 271, 272, 273, 274, 275, 276, 277, 278, 279, 280, 281, 282, 283, 284, 285, 286, 287, 288, 289, 290, 291, 292, 293, 294, 295, 296, 297, 298, 299, 300, 301, 302, 303, 304, 305, 306, 307, 308, 309, 310, 311, 312, 313, 314, 315, 316, 317, 318, 319, 320, 321, 322, 323, 324, 325, 326, 327, 328, 329, 330, 331, 332, 333, 334, 335, 336, 337, 338, 339, 340, 341, 342, 343, 344, 345, 346, 347, 348, 349, 350, 351, 352, 353, 354, 355, 356, 357, 358, 359, 360, 361, 362, 363, 364, 365, 366, 367, 368, 369, 370, 371, 372, 373],
      "AcquisitionTime": ["143337.650000", "143338.930000", "143340.210000", "143341.490000", "143342.770000", "143344.050000", "143345.330000", "143346.610000", "143347.890000", "143349.170000", "143350.450000", "143351.730000", "143353.010000", "143354.290000", "143355.570000", "143356.850000", "143358.130000", "143359.410000", "143400.690000", "143401.970000", "143403.250000", "143404.530000", "143405.810000", "143407.090000", "143408.370000", "143409.650000", "143410.930000", "143412.210000", "143413.490000", "143414.770000", "143416.050000", "143417.330000", "143418.610000", "143419.890000", "143421.170000", "143422.450000", "143423.730000", "143425.010000", "143426.290000", "143427.570000", "143428.850000", "143430.130000", "143431.410000", "143432.690000", "143433.970000", "143435.250000", "143436.530000", "143437.810000", "143439.090000", "143440.370000", "143441.650000", "143442.930000", "143444.210000", "143445.490000", "143446.770000", "143448.050000", "143449.330000", "143450.610000", "143451.890000", "143453.170000", "143454.450000", "143455.730000", "143457.010000", "143458.290000", "143459.570000", "143500.850000", "143502.130000", "143503.410000", "143504.690000", "143505.970000", "143507.250000", "143508.530000", "143509.810000", "143511.090000", "143512.370000", "143513.650000", "143514.930000", "143516.210000", "143517.490000", "143518.770000", "143520.050000", "143521.330000", "143522.610000", "143523.890000", "143525.170000", "143526.450000", "143527.730000", "143529.010000", "143530.290000", "143531.570000", "143532.850000", "143534.130000", "143535.410000", "143536.690000", "143537.970000", "143539.250000", "143540.530000", "143541.810000", "143543.090000", "143544.370000", "143545.650000", "143546.930000", "143548.210000", "143549.490000", "143550.770000", "143552.050000", "143553.330000", "143554.610000", "143555.890000", "143557.170000", "143558.450000", "143559.730000", "143601.010000", "143602.290000", "143603.570000", "143604.850000", "143606.130000", "143607.410000", "143608.690000", "143609.970000", "143611.250000", "143612.530000", "143613.810000", "143615.090000", "143616.370000", "143617.650000", "143618.930000", "143620.210000", "143621.490000", "143622.770000", "143624.050000", "143625.330000", "143626.610000", "143627.890000", "143629.170000", "143630.450000", "143631.730000", "143633.010000", "143634.290000", "143635.570000", "143636.850000", "143638.130000", "143639.410000", "143640.690000", "143641.970000", "143643.250000", "143644.530000", "143645.810000", "143647.090000", "143648.370000", "143649.650000", "143650.930000", "143652.210000", "143653.490000", "143654.770000", "143656.050000", "143657.330000", "143658.610000", "143659.890000", "143701.170000", "143702.450000", "143703.730000", "143705.010000", "143706.290000", "143707.570000", "143708.850000", "143710.130000", "143711.410000", "143712.690000", "143713.970000", "143715.250000", "143716.530000", "143717.810000", "143719.090000", "143720.370000", "143721.650000", "143722.930000", "143724.210000", "143725.490000", "143726.770000", "143728.050000", "143729.330000", "143730.610000", "143731.890000", "143733.170000", "143734.450000", "143735.730000", "143737.010000", "143738.290000", "143739.570000", "143740.850000", "143742.130000", "143743.410000", "143744.690000", "143745.970000", "143747.250000", "143748.530000", "143749.810000", "143751.090000", "143752.370000", "143753.650000", "143754.930000", "143756.210000", "143757.490000", "143758.770000", "143800.050000", "143801.330000", "143802.610000", "143803.890000", "143805.170000", "143806.450000", "143807.730000", "143809.010000", "143810.290000", "143811.570000", "143812.850000", "143814.130000", "143815.410000", "143816.690000", "143817.970000", "143819.250000", "143820.530000", "143821.810000", "143823.090000", "143824.370000", "143825.650000", "143826.930000", "143828.210000", "143829.490000", "143830.770000", "143832.050000", "143833.330000", "143834.610000", "143835.890000", "143837.170000", "143838.450000", "143839.730000", "143841.010000", "143842.290000", "143843.570000", "143844.850000", "143846.130000", "143847.410000", "143848.690000", "143849.970000", "143851.250000", "143852.530000", "143853.810000", "143855.090000", "143856.370000", "143857.650000", "143858.930000", "143900.210000", "143901.490000", "143902.770000", "143904.050000", "143905.330000", "143906.610000", "143907.890000", "143909.170000", "143910.450000", "143911.730000", "143913.010000", "143914.290000", "143915.570000", "143916.850000", "143918.130000", "143919.410000", "143920.690000", "143921.970000", "143923.250000", "143924.530000", "143925.810000", "143927.090000", "143928.370000", "143929.650000", "143930.930000", "143932.210000", "143933.490000", "143934.770000", "143936.050000", "143937.330000", "143938.610000", "143939.890000", "143941.170000", "143942.450000", "143943.730000", "143945.010000", "143946.290000", "143947.570000", "143948.850000", "143950.130000", "143951.410000", "143952.690000", "143953.970000", "143955.250000", "143956.530000", "143957.810000", "143959.090000", "144000.370000", "144001.650000", "144002.930000", "144004.210000", "144005.490000", "144006.770000", "144008.050000", "144009.330000", "144010.610000", "144011.890000", "144013.170000", "144014.450000", "144015.730000", "144017.010000", "144018.290000", "144019.570000", "144020.850000", "144022.130000", "144023.410000", "144024.690000", "144025.970000", "144027.250000", "144028.530000", "144029.810000", "144031.090000", "144032.370000", "144033.650000", "144034.930000", "144036.210000", "144037.490000", "144038.770000", "144040.050000", "144041.330000", "144042.610000", "144043.890000", "144045.170000", "144046.450000", "144047.730000", "144049.010000", "144050.290000", "144051.570000", "144052.850000", "144054.130000", "144055.410000", "144056.690000", "144057.970000", "144059.250000", "144100.530000", "144101.810000", "144103.090000", "144104.370000", "144105.650000", "144106.930000", "144108.210000", "144109.490000", "144110.770000", "144112.050000", "144113.330000", "144114.610000", "144115.890000", "144117.170000", "144118.450000", "144119.730000", "144121.010000", "144122.290000", "144123.570000", "144124.850000", "144126.130000", "144127.410000", "144128.690000", "144129.970000", "144131.250000", "144132.530000", "144133.810000"],
      "ContentTime": ["143413.841000", "143413.846000", "143413.850000", "143413.854000", "143413.857000", "143413.860000", "143413.863000", "143413.866000", "143413.869000", "143413.872000", "143413.875000", "143413.878000", "143413.881000", "143413.884000", "143413.887000", "143413.890000", "143413.893000", "143413.896000", "143413.899000", "143413.901000", "143413.904000", "143413.907000", "143413.910000", "143413.917000", "143413.920000", "143413.923000", "143413.926000", "143453.835000", "143453.838000", "143453.841000", "143453.844000", "143453.847000", "143453.850000", "143453.853000", "143453.856000", "143453.859000", "143453.862000", "143453.865000", "143453.868000", "143453.871000", "143453.874000", "143453.877000", "143453.880000", "143453.883000", "143453.886000", "143453.889000", "143453.892000", "143453.895000", "143453.898000", "143453.901000", "143453.904000", "143453.907000", "143453.910000", "143453.913000", "143453.916000", "143453.919000", "143453.922000", "143453.925000", "143453.931000", "143533.835000", "143533.838000", "143533.841000", "143533.844000", "143533.847000", "143533.850000", "143533.853000", "143533.856000", "143533.859000", "143533.871000", "143533.874000", "143533.876000", "143533.879000", "143533.882000", "143533.885000", "143533.888000", "143533.891000", "143533.894000", "143533.897000", "143533.900000", "143533.903000", "143533.906000", "143533.909000", "143533.912000", "143533.915000", "143533.918000", "143533.921000", "143533.924000", "143533.927000", "143533.930000", "143533.933000", "143613.836000", "143613.839000", "143613.842000", "143613.845000", "143613.848000", "143613.851000", "143613.854000", "143613.857000", "143613.860000", "143613.863000", "143613.866000", "143613.869000", "143613.871000", "143613.874000", "143613.877000", "143613.880000", "143613.883000", "143613.886000", "143613.889000", "143613.892000", "143613.895000", "143613.898000", "143613.901000", "143613.904000", "143613.907000", "143613.910000", "143613.913000", "143613.916000", "143613.919000", "143613.921000", "143613.924000", "143653.835000", "143653.838000", "143653.841000", "143653.844000", "143653.847000", "143653.850000", "143653.853000", "143653.856000", "143653.859000", "143653.862000", "143653.865000", "143653.870000", "143653.875000", "143653.879000", "143653.882000", "143653.885000", "143653.888000", "143653.891000", "143653.894000", "143653.897000", "143653.900000", "143653.903000", "143653.906000", "143653.908000", "143653.911000", "143653.914000", "143653.917000", "143653.920000", "143653.923000", "143653.926000", "143653.929000", "143733.835000", "143733.838000", "143733.841000", "143733.844000", "143733.847000", "143733.850000", "143733.853000", "143733.856000", "143733.859000", "143733.862000", "143733.865000", "143733.868000", "143733.871000", "143733.874000", "143733.876000", "143733.879000", "143733.882000", "143733.885000", "143733.888000", "143733.891000", "143733.894000", "143733.897000", "143733.909000", "143733.912000", "143733.915000", "143733.918000", "143733.921000", "143733.923000", "143733.926000", "143733.929000", "143733.932000", "143733.935000", "143813.835000", "143813.838000", "143813.841000", "143813.844000", "143813.847000", "143813.850000", "143813.853000", "143813.856000", "143813.859000", "143813.862000", "143813.865000", "143813.868000", "143813.870000", "143813.873000", "143813.876000", "143813.879000", "143813.882000", "143813.885000", "143813.888000", "143813.891000", "143813.894000", "143813.897000", "143813.900000", "143813.903000", "143813.906000", "143813.909000", "143813.912000", "143813.915000", "143813.918000", "143813.920000", "143813.923000", "143853.835000", "143853.838000", "143853.841000", "143853.844000", "143853.847000", "143853.850000", "143853.853000", "143853.856000", "143853.859000", "143853.862000", "143853.865000", "143853.868000", "143853.871000", "143853.874000", "143853.877000", "143853.880000", "143853.882000", "143853.885000", "143853.888000", "143853.891000", "143853.894000", "143853.897000", "143853.900000", "143853.903000", "143853.906000", "143853.909000", "143853.912000", "143853.915000", "143853.918000", "143853.921000", "143853.924000", "143933.835000", "143933.838000", "143933.841000", "143933.844000", "143933.850000", "143933.855000", "143933.859000", "143933.862000", "143933.865000", "143933.868000", "143933.871000", "143933.874000", "143933.877000", "143933.880000", "143933.883000", "143933.886000", "143933.889000", "143933.892000", "143933.895000", "143933.898000", "143933.901000", "143933.904000", "143933.907000", "143933.910000", "143933.912000", "143933.915000", "143933.918000", "143933.921000", "143933.924000", "143933.927000", "143933.930000", "144013.835000", "144013.838000", "144013.841000", "144013.844000", "144013.847000", "144013.850000", "144013.853000", "144013.856000", "144013.859000", "144013.862000", "144013.865000", "144013.868000", "144013.871000", "144013.874000", "144013.877000", "144013.880000", "144013.883000", "144013.886000", "144013.888000", "144013.891000", "144013.894000", "144013.897000", "144013.900000", "144013.903000", "144013.906000", "144013.909000", "144013.912000", "144013.915000", "144013.918000", "144013.921000", "144013.924000", "144013.927000", "144053.835000", "144053.838000", "144053.841000", "144053.844000", "144053.847000", "144053.850000", "144053.853000", "144053.856000", "144053.859000", "144053.862000", "144053.865000", "144053.868000", "144053.871000", "144053.874000", "144053.877000", "144053.880000", "144053.883000", "144053.886000", "144053.889000", "144053.892000", "144053.895000", "144053.897000", "144053.900000", "144053.903000", "144053.906000", "144053.909000", "144053.912000", "144053.915000", "144053.918000", "144053.921000", "144053.924000", "144133.835000", "144133.838000", "144133.841000", "144133.844000", "144133.847000", "144133.851000", "144133.853000", "144133.856000", "144133.865000", "144133.868000", "144133.871000", "144133.874000", "144133.877000", "144133.881000", "144133.883000", "144133.886000", "144133.889000", "144133.892000", "144133.895000", "144133.898000", "144133.901000", "144133.915000", "144133.918000", "144133.921000", "144133.924000", "144133.933000", "144133.936000", "144133.939000", "144133.942000", "144133.945000", "144133.948000", "144135.462000", "144135.466000"],
      "InstanceCreationTime": ["143413.841000", "143413.846000", "143413.850000", "143413.854000", "143413.857000", "143413.860000", "143413.863000", "143413.866000", "143413.869000", "143413.872000", "143413.875000", "143413.878000", "143413.881000", "143413.884000", "143413.887000", "143413.890000", "143413.893000", "143413.896000", "143413.899000", "143413.901000", "143413.904000", "143413.907000", "143413.910000", "143413.917000", "143413.920000", "143413.923000", "143413.926000", "143453.835000", "143453.838000", "143453.841000", "143453.844000", "143453.847000", "143453.850000", "143453.853000", "143453.856000", "143453.859000", "143453.862000", "143453.865000", "143453.868000", "143453.871000", "143453.874000", "143453.877000", "143453.880000", "143453.883000", "143453.886000", "143453.889000", "143453.892000", "143453.895000", "143453.898000", "143453.901000", "143453.904000", "143453.907000", "143453.910000", "143453.913000", "143453.916000", "143453.919000", "143453.922000", "143453.925000", "143453.931000", "143533.835000", "143533.838000", "143533.841000", "143533.844000", "143533.847000", "143533.850000", "143533.853000", "143533.856000", "143533.859000", "143533.871000", "143533.874000", "143533.876000", "143533.879000", "143533.882000", "143533.885000", "143533.888000", "143533.891000", "143533.894000", "143533.897000", "143533.900000", "143533.903000", "143533.906000", "143533.909000", "143533.912000", "143533.915000", "143533.918000", "143533.921000", "143533.924000", "143533.927000", "143533.930000", "143533.933000", "143613.836000", "143613.839000", "143613.842000", "143613.845000", "143613.848000", "143613.851000", "143613.854000", "143613.857000", "143613.860000", "143613.863000", "143613.866000", "143613.869000", "143613.871000", "143613.874000", "143613.877000", "143613.880000", "143613.883000", "143613.886000", "143613.889000", "143613.892000", "143613.895000", "143613.898000", "143613.901000", "143613.904000", "143613.907000", "143613.910000", "143613.913000", "143613.916000", "143613.919000", "143613.921000", "143613.924000", "143653.835000", "143653.838000", "143653.841000", "143653.844000", "143653.847000", "143653.850000", "143653.853000", "143653.856000", "143653.859000", "143653.862000", "143653.865000", "143653.870000", "143653.875000", "143653.879000", "143653.882000", "143653.885000", "143653.888000", "143653.891000", "143653.894000", "143653.897000", "143653.900000", "143653.903000", "143653.906000", "143653.908000", "143653.911000", "143653.914000", "143653.917000", "143653.920000", "143653.923000", "143653.926000", "143653.929000", "143733.835000", "143733.838000", "143733.841000", "143733.844000", "143733.847000", "143733.850000", "143733.853000", "143733.856000", "143733.859000", "143733.862000", "143733.865000", "143733.868000", "143733.871000", "143733.874000", "143733.876000", "143733.879000", "143733.882000", "143733.885000", "143733.888000", "143733.891000", "143733.894000", "143733.897000", "143733.909000", "143733.912000", "143733.915000", "143733.918000", "143733.921000", "143733.923000", "143733.926000", "143733.929000", "143733.932000", "143733.935000", "143813.835000", "143813.838000", "143813.841000", "143813.844000", "143813.847000", "143813.850000", "143813.853000", "143813.856000", "143813.859000", "143813.862000", "143813.865000", "143813.868000", "143813.870000", "143813.873000", "143813.876000", "143813.879000", "143813.882000", "143813.885000", "143813.888000", "143813.891000", "143813.894000", "143813.897000", "143813.900000", "143813.903000", "143813.906000", "143813.909000", "143813.912000", "143813.915000", "143813.918000", "143813.920000", "143813.923000", "143853.835000", "143853.838000", "143853.841000", "143853.844000", "143853.847000", "143853.850000", "143853.853000", "143853.856000", "143853.859000", "143853.862000", "143853.865000", "143853.868000", "143853.871000", "143853.874000", "143853.877000", "143853.880000", "143853.882000", "143853.885000", "143853.888000", "143853.891000", "143853.894000", "143853.897000", "143853.900000", "143853.903000", "143853.906000", "143853.909000", "143853.912000", "143853.915000", "143853.918000", "143853.921000", "143853.924000", "143933.835000", "143933.838000", "143933.841000", "143933.844000", "143933.850000", "143933.855000", "143933.859000", "143933.862000", "143933.865000", "143933.868000", "143933.871000", "143933.874000", "143933.877000", "143933.880000", "143933.883000", "143933.886000", "143933.889000", "143933.892000", "143933.895000", "143933.898000", "143933.901000", "143933.904000", "143933.907000", "143933.910000", "143933.912000", "143933.915000", "143933.918000", "143933.921000", "143933.924000", "143933.927000", "143933.930000", "144013.835000", "144013.838000", "144013.841000", "144013.844000", "144013.847000", "144013.850000", "144013.853000", "144013.856000", "144013.859000", "144013.862000", "144013.865000", "144013.868000", "144013.871000", "144013.874000", "144013.877000", "144013.880000", "144013.883000", "144013.886000", "144013.888000", "144013.891000", "144013.894000", "144013.897000", "144013.900000", "144013.903000", "144013.906000", "144013.909000", "144013.912000", "144013.915000", "144013.918000", "144013.921000", "144013.924000", "144013.927000", "144053.835000", "144053.838000", "144053.841000", "144053.844000", "144053.847000", "144053.850000", "144053.853000", "144053.856000", "144053.859000", "144053.862000", "144053.865000", "144053.868000", "144053.871000", "144053.874000", "144053.877000", "144053.880000", "144053.883000", "144053.886000", "144053.889000", "144053.892000", "144053.895000", "144053.897000", "144053.900000", "144053.903000", "144053.906000", "144053.909000", "144053.912000", "144053.915000", "144053.918000", "144053.921000", "144053.924000", "144133.835000", "144133.838000", "144133.841000", "144133.844000", "144133.847000", "144133.851000", "144133.853000", "144133.856000", "144133.865000", "144133.868000", "144133.871000", "144133.874000", "144133.877000", "144133.881000", "144133.883000", "144133.886000", "144133.889000", "144133.892000", "144133.895000", "144133.898000", "144133.901000", "144133.915000", "144133.918000", "144133.921000", "144133.924000", "144133.933000", "144133.936000", "144133.939000", "144133.942000", "144133.945000", "144133.948000", "144135.462000", "144135.466000"],
      "InstanceNumber": [1, 2, 3, 4, 5, 6, 7, 8, 9, 10, 11, 12, 13, 14, 15, 16, 17, 18, 19, 20, 21, 22, 23, 24, 25, 26, 27, 28, 29, 30, 31, 32, 33, 34, 35, 36, 37, 38, 39, 40, 41, 42, 43, 44, 45, 46, 47, 48, 49, 50, 51, 52, 53, 54, 55, 56, 57, 58, 59, 60, 61, 62, 63, 64, 65, 66, 67, 68, 69, 70, 71, 72, 73, 74, 75, 76, 77, 78, 79, 80, 81, 82, 83, 84, 85, 86, 87, 88, 89, 90, 91, 92, 93, 94, 95, 96, 97, 98, 99, 100, 101, 102, 103, 104, 105, 106, 107, 108, 109, 110, 111, 112, 113, 114, 115, 116, 117, 118, 119, 120, 121, 122, 123, 124, 125, 126, 127, 128, 129, 130, 131, 132, 133, 134, 135, 136, 137, 138, 139, 140, 141, 142, 143, 144, 145, 146, 147, 148, 149, 150, 151, 152, 153, 154, 155, 156, 157, 158, 159, 160, 161, 162, 163, 164, 165, 166, 167, 168, 169, 170, 171, 172, 173, 174, 175, 176, 177, 178, 179, 180, 181, 182, 183, 184, 185, 186, 187, 188, 189, 190, 191, 192, 193, 194, 195, 196, 197, 198, 199, 200, 201, 202, 203, 204, 205, 206, 207, 208, 209, 210, 211, 212, 213, 214, 215, 216, 217, 218, 219, 220, 221, 222, 223, 224, 225, 226, 227, 228, 229, 230, 231, 232, 233, 234, 235, 236, 237, 238, 239, 240, 241, 242, 243, 244, 245, 246, 247, 248, 249, 250, 251, 252, 253, 254, 255, 256, 257, 258, 259, 260, 261, 262, 263, 264, 265, 266, 267, 268, 269, 270, 271, 272, 273, 274, 275, 276, 277, 278, 279, 280, 281, 282, 283, 284, 285, 286, 287, 288, 289, 290, 291, 292, 293, 294, 295, 296, 297, 298, 299, 300, 301, 302, 303, 304, 305, 306, 307, 308, 309, 310, 311, 312, 313, 314, 315, 316, 317, 318, 319, 320, 321, 322, 323, 324, 325, 326, 327, 328, 329, 330, 331, 332, 333, 334, 335, 336, 337, 338, 339, 340, 341, 342, 343, 344, 345, 346, 347, 348, 349, 350, 351, 352, 353, 354, 355, 356, 357, 358, 359, 360, 361, 362, 363, 364, 365, 366, 367, 368, 369, 370, 371, 372, 373],
