{
  "AcquisitionMatrixPE": 108,
  "AcquisitionNumber": 1,
  "AcquisitionTime": "15:06:46.755000",
  "BandwidthPerPixelPhaseEncode": 15.964,
  "BaseResolution": 108,
  "BodyPartExamined": "BRAIN",
  "ConsistencyInfo": "N4_VE11C_LATEST_20160120",
  "ConversionSoftware": "dcm2niix",
  "ConversionSoftwareVersion": "v1.0.20180622 GCC6.3.0",
  "DerivedVendorReportedEchoSpacing": 0.000580009,
  "DeviceSerialNumber": "66054",
  "DwellTime": 2.1e-06,
  "EchoTime": 0.031,
  "EchoTrainLength": 95,
  "EffectiveEchoSpacing": 0.000580009,
  "FlipAngle": 64,
  "ImageOrientationPatientDICOM": [0.998636, -0.052203, 0.000902942, 0.0470945, 0.893176, -0.447234],
  "ImageType": [
    "ORIGINAL",
    "PRIMARY",
    "M",
    "ND",
    "MOSAIC"
],
  "InPlanePhaseEncodingDirectionDICOM": "COL",
  "InstitutionAddress": "Chemin_des_Mines_9_Geneve_District_CH_1211",
  "InstitutionName": "Fondation_Campus_Biotech_Geneva",
  "InstitutionalDepartmentName": "Department",
  "MRAcquisitionType": "2D",
  "MagneticFieldStrength": 3,
  "Manufacturer": "Siemens",
  "ManufacturersModelName": "Prisma",
  "Modality": "MR",
  "MultibandAccelerationFactor": 4,
  "PartialFourier": 0.875,
  "PatientPosition": "HFS",
  "PercentPhaseFOV": 100,
  "PhaseEncodingDirection": "j-",
  "PhaseEncodingSteps": 95,
  "PhaseResolution": 1,
  "PixelBandwidth": 2205,
  "ProcedureStepDescription": "J.DRM_Michael",
  "ProtocolName": "Run4_bold_s4_TR1.28",
  "PulseSequenceDetails": "%SiemensSeq%_ep2d_bold",
  "ReceiveCoilActiveElements": "HC1-7;NC1,2",
  "ReceiveCoilName": "HeadNeck_64",
  "ReconMatrixPE": 108,
  "RepetitionTime": 1.28,
  "SAR": 0.0740076,
  "ScanOptions": "PFP_FS",
  "ScanningSequence": "EP",
  "SequenceName": "_epfid2d1_108",
  "SequenceVariant": "SK",
  "SeriesDescription": "Run4_bold_s4_TR1.28",
  "SeriesNumber": 9,
  "ShimSetting": [-1254, -11665, 6465, 671, 116, -137, -39, 65],
  "SliceThickness": 2,
  "SliceTiming": [0.945, 0, 0.63, 0.08, 0.71, 0.1575, 0.7875, 0.2375, 0.8675, 0.395, 1.025, 0.4725, 1.1025, 0.5525, 1.1825, 0.315, 0.945, 0, 0.63, 0.08, 0.71, 0.1575, 0.7875, 0.2375, 0.8675, 0.395, 1.025, 0.4725, 1.1025, 0.5525, 1.1825, 0.315, 0.945, 0, 0.63, 0.08, 0.71, 0.1575, 0.7875, 0.2375, 0.8675, 0.395, 1.025, 0.4725, 1.1025, 0.5525, 1.1825, 0.315, 0.945, 0, 0.63, 0.08, 0.71, 0.1575, 0.7875, 0.2375, 0.8675, 0.395, 1.025, 0.4725, 1.1025, 0.5525, 1.1825, 0.315],
  "SoftwareVersions": "syngo_MR_E11",
  "SpacingBetweenSlices": 2,
  "StationName": "AWP66054",
  "TaskName": "main",
  "TotalReadoutTime": 0.0620609,
  "TxRefAmp": 274.085,
  "dcmmeta_affine": [
    [-1.9880255460739136, 0.093752920627594, -0.04508092626929283, 102.749755859375],
    [0.10392254590988159, 1.7780821323394775, -0.8933336734771729, -71.95059967041016],
    [0.0017975239316001534, 0.890327513217926, 1.7888327836990356, -98.46207427978516],
    [0.0, 0.0, 0.0, 1.0]
],
  "dcmmeta_reorient_transform": [
    [0.0, -1.0, 0.0, 107.0],
    [1.0, 0.0, 0.0, 0.0],
    [0.0, 0.0, 1.0, 0.0],
    [0.0, 0.0, 0.0, 1.0]
],
  "dcmmeta_shape": [108, 108, 64, 373],
  "dcmmeta_slice_dim": 2,
  "dcmmeta_version": 0.6,
  "global": {
    "const": {
      "AccessionNumber": "",
      "AcquisitionMatrix": [108, 0, 0, 108],
      "AngioFlag": "N",
      "BitsAllocated": 16,
      "BitsStored": 12,
      "BodyPartExamined": "BRAIN",
      "Columns": 864,
      "EchoNumbers": 1,
      "EchoTime": 31.0,
      "EchoTrainLength": 95,
      "FlipAngle": 64.0,
      "HighBit": 11,
      "ImageOrientationPatient": [0.99863608812452, -0.0522029519347, 0.00090294222584, 0.04709449007296, 0.89317613059765, -0.4472342884165],
      "ImagePositionPatient": [-899.69359282134, -751.13652076214, 332.66731789744],
      "ImageType": [
        "ORIGINAL",
        "PRIMARY",
        "M",
        "ND",
        "MOSAIC"
],
      "ImagedNucleus": "1H",
      "ImagingFrequency": 123.257394,
      "InPlanePhaseEncodingDirection": "COL",
      "MRAcquisitionType": "2D",
      "MagneticFieldStrength": 3.0,
      "Manufacturer": "SIEMENS",
      "ManufacturerModelName": "Prisma",
      "Modality": "MR",
      "NumberOfAverages": 1.0,
      "NumberOfPhaseEncodingSteps": 95,
      "PercentPhaseFieldOfView": 100.0,
      "PercentSampling": 100.0,
      "PerformedProcedureStepStartTime": "143014.434000",
      "PhotometricInterpretation": "MONOCHROME2",
      "PixelBandwidth": 2205.0,
      "PixelRepresentation": 0,
      "PixelSpacing": [1.990740776062, 1.990740776062],
      "PositionReferenceIndicator": "",
      "ProtocolName": "Run4_bold_s4_TR1.28",
      "RepetitionTime": 1280.0,
      "Rows": 864,
      "SAR": 0.07400764725068,
      "SamplesPerPixel": 1,
      "ScanOptions": [
        "PFP",
        "FS"
],
      "ScanningSequence": "EP",
      "SequenceName": "*epfid2d1_108",
      "SequenceVariant": "SK",
      "SeriesDescription": "Run4_bold_s4_TR1.28",
      "SeriesNumber": 9,
      "SeriesTime": "150728.637000",
      "SliceLocation": -58.244173677872,
      "SliceThickness": 2.0,
      "SmallestImagePixelValue": 0,
      "SoftwareVersions": "syngo MR E11",
      "SpacingBetweenSlices": 1.9999999931555,
      "SpecificCharacterSet": "ISO_IR 100",
      "StudyID": "1",
      "StudyTime": "143014.368000",
      "TransmitCoilName": "Body",
      "VariableFlipAngleFlag": "N",
      "WindowCenterWidthExplanation": "Algo1",
      "dBdt": 0.0},
    "slices": {}
  },
  "time": {
    "samples": {
      "AcquisitionNumber": [1, 2, 3, 4, 5, 6, 7, 8, 9, 10, 11, 12, 13, 14, 15, 16, 17, 18, 19, 20, 21, 22, 23, 24, 25, 26, 27, 28, 29, 30, 31, 32, 33, 34, 35, 36, 37, 38, 39, 40, 41, 42, 43, 44, 45, 46, 47, 48, 49, 50, 51, 52, 53, 54, 55, 56, 57, 58, 59, 60, 61, 62, 63, 64, 65, 66, 67, 68, 69, 70, 71, 72, 73, 74, 75, 76, 77, 78, 79, 80, 81, 82, 83, 84, 85, 86, 87, 88, 89, 90, 91, 92, 93, 94, 95, 96, 97, 98, 99, 100, 101, 102, 103, 104, 105, 106, 107, 108, 109, 110, 111, 112, 113, 114, 115, 116, 117, 118, 119, 120, 121, 122, 123, 124, 125, 126, 127, 128, 129, 130, 131, 132, 133, 134, 135, 136, 137, 138, 139, 140, 141, 142, 143, 144, 145, 146, 147, 148, 149, 150, 151, 152, 153, 154, 155, 156, 157, 158, 159, 160, 161, 162, 163, 164, 165, 166, 167, 168, 169, 170, 171, 172, 173, 174, 175, 176, 177, 178, 179, 180, 181, 182, 183, 184, 185, 186, 187, 188, 189, 190, 191, 192, 193, 194, 195, 196, 197, 198, 199, 200, 201, 202, 203, 204, 205, 206, 207, 208, 209, 210, 211, 212, 213, 214, 215, 216, 217, 218, 219, 220, 221, 222, 223, 224, 225, 226, 227, 228, 229, 230, 231, 232, 233, 234, 235, 236, 237, 238, 239, 240, 241, 242, 243, 244, 245, 246, 247, 248, 249, 250, 251, 252, 253, 254, 255, 256, 257, 258, 259, 260, 261, 262, 263, 264, 265, 266, 267, 268, 269, 270, 271, 272, 273, 274, 275, 276, 277, 278, 279, 280, 281, 282, 283, 284, 285, 286, 287, 288, 289, 290, 291, 292, 293, 294, 295, 296, 297, 298, 299, 300, 301, 302, 303, 304, 305, 306, 307, 308, 309, 310, 311, 312, 313, 314, 315, 316, 317, 318, 319, 320, 321, 322, 323, 324, 325, 326, 327, 328, 329, 330, 331, 332, 333, 334, 335, 336, 337, 338, 339, 340, 341, 342, 343, 344, 345, 346, 347, 348, 349, 350, 351, 352, 353, 354, 355, 356, 357, 358, 359, 360, 361, 362, 363, 364, 365, 366, 367, 368, 369, 370, 371, 372, 373],
      "AcquisitionTime": ["150646.755000", "150648.035000", "150649.315000", "150650.595000", "150651.875000", "150653.155000", "150654.435000", "150655.715000", "150656.995000", "150658.275000", "150659.555000", "150700.835000", "150702.115000", "150703.395000", "150704.675000", "150705.955000", "150707.235000", "150708.515000", "150709.795000", "150711.075000", "150712.355000", "150713.635000", "150714.915000", "150716.195000", "150717.475000", "150718.755000", "150720.035000", "150721.315000", "150722.595000", "150723.875000", "150725.155000", "150726.435000", "150727.715000", "150728.995000", "150730.275000", "150731.555000", "150732.835000", "150734.115000", "150735.395000", "150736.675000", "150737.955000", "150739.235000", "150740.515000", "150741.795000", "150743.075000", "150744.355000", "150745.635000", "150746.915000", "150748.195000", "150749.475000", "150750.755000", "150752.035000", "150753.315000", "150754.595000", "150755.875000", "150757.155000", "150758.435000", "150759.715000", "150800.995000", "150802.275000", "150803.555000", "150804.835000", "150806.115000", "150807.395000", "150808.675000", "150809.955000", "150811.235000", "150812.515000", "150813.795000", "150815.075000", "150816.355000", "150817.635000", "150818.915000", "150820.195000", "150821.475000", "150822.755000", "150824.035000", "150825.315000", "150826.595000", "150827.875000", "150829.155000", "150830.435000", "150831.715000", "150832.995000", "150834.275000", "150835.555000", "150836.835000", "150838.115000", "150839.395000", "150840.675000", "150841.955000", "150843.235000", "150844.515000", "150845.795000", "150847.075000", "150848.355000", "150849.635000", "150850.915000", "150852.195000", "150853.475000", "150854.755000", "150856.035000", "150857.315000", "150858.595000", "150859.875000", "150901.155000", "150902.435000", "150903.715000", "150904.995000", "150906.275000", "150907.555000", "150908.835000", "150910.115000", "150911.395000", "150912.675000", "150913.955000", "150915.235000", "150916.515000", "150917.795000", "150919.075000", "150920.355000", "150921.635000", "150922.915000", "150924.195000", "150925.475000", "150926.755000", "150928.035000", "150929.315000", "150930.595000", "150931.875000", "150933.155000", "150934.435000", "150935.715000", "150936.995000", "150938.275000", "150939.555000", "150940.835000", "150942.115000", "150943.395000", "150944.675000", "150945.955000", "150947.235000", "150948.515000", "150949.795000", "150951.075000", "150952.355000", "150953.635000", "150954.915000", "150956.195000", "150957.475000", "150958.755000", "151000.035000", "151001.315000", "151002.595000", "151003.875000", "151005.155000", "151006.435000", "151007.715000", "151008.995000", "151010.275000", "151011.555000", "151012.835000", "151014.115000", "151015.395000", "151016.675000", "151017.955000", "151019.235000", "151020.515000", "151021.795000", "151023.075000", "151024.355000", "151025.635000", "151026.915000", "151028.195000", "151029.475000", "151030.755000", "151032.035000", "151033.315000", "151034.595000", "151035.875000", "151037.155000", "151038.435000", "151039.715000", "151040.995000", "151042.275000", "151043.555000", "151044.835000", "151046.115000", "151047.395000", "151048.675000", "151049.955000", "151051.235000", "151052.515000", "151053.795000", "151055.075000", "151056.355000", "151057.635000", "151058.915000", "151100.195000", "151101.475000", "151102.755000", "151104.035000", "151105.315000", "151106.595000", "151107.875000", "151109.155000", "151110.435000", "151111.715000", "151112.995000", "151114.275000", "151115.555000", "151116.835000", "151118.115000", "151119.395000", "151120.675000", "151121.955000", "151123.235000", "151124.515000", "151125.795000", "151127.075000", "151128.355000", "151129.635000", "151130.915000", "151132.195000", "151133.475000", "151134.755000", "151136.035000", "151137.315000", "151138.595000", "151139.875000", "151141.155000", "151142.435000", "151143.715000", "151144.995000", "151146.275000", "151147.555000", "151148.835000", "151150.115000", "151151.395000", "151152.675000", "151153.955000", "151155.235000", "151156.515000", "151157.795000", "151159.075000", "151200.355000", "151201.635000", "151202.915000", "151204.195000", "151205.475000", "151206.755000", "151208.035000", "151209.315000", "151210.595000", "151211.875000", "151213.155000", "151214.435000", "151215.715000", "151216.995000", "151218.275000", "151219.555000", "151220.835000", "151222.115000", "151223.395000", "151224.675000", "151225.955000", "151227.235000", "151228.515000", "151229.795000", "151231.075000", "151232.355000", "151233.635000", "151234.915000", "151236.195000", "151237.475000", "151238.755000", "151240.035000", "151241.315000", "151242.595000", "151243.875000", "151245.155000", "151246.435000", "151247.715000", "151248.995000", "151250.275000", "151251.555000", "151252.835000", "151254.115000", "151255.395000", "151256.675000", "151257.955000", "151259.235000", "151300.515000", "151301.795000", "151303.075000", "151304.355000", "151305.635000", "151306.915000", "151308.195000", "151309.475000", "151310.755000", "151312.035000", "151313.315000", "151314.595000", "151315.875000", "151317.155000", "151318.435000", "151319.715000", "151320.995000", "151322.275000", "151323.555000", "151324.835000", "151326.115000", "151327.395000", "151328.675000", "151329.955000", "151331.235000", "151332.515000", "151333.795000", "151335.075000", "151336.355000", "151337.635000", "151338.915000", "151340.195000", "151341.475000", "151342.755000", "151344.035000", "151345.315000", "151346.595000", "151347.875000", "151349.155000", "151350.435000", "151351.715000", "151352.995000", "151354.275000", "151355.555000", "151356.835000", "151358.115000", "151359.395000", "151400.675000", "151401.955000", "151403.235000", "151404.515000", "151405.795000", "151407.075000", "151408.355000", "151409.635000", "151410.915000", "151412.195000", "151413.475000", "151414.755000", "151416.035000", "151417.315000", "151418.595000", "151419.875000", "151421.155000", "151422.435000", "151423.715000", "151424.995000", "151426.275000", "151427.555000", "151428.835000", "151430.115000", "151431.395000", "151432.675000", "151433.955000", "151435.235000", "151436.515000", "151437.795000", "151439.075000", "151440.355000", "151441.635000", "151442.915000"],
      "ContentTime": ["150728.642000", "150728.645000", "150728.648000", "150728.656000", "150728.659000", "150728.662000", "150728.665000", "150728.668000", "150728.671000", "150728.674000", "150728.677000", "150728.680000", "150728.682000", "150728.685000", "150728.689000", "150728.692000", "150728.695000", "150728.698000", "150728.701000", "150728.704000", "150728.707000", "150728.719000", "150728.722000", "150728.725000", "150728.728000", "150728.742000", "150728.745000", "150728.748000", "150728.751000", "150728.754000", "150728.757000", "150728.760000", "150808.635000", "150808.638000", "150808.641000", "150808.644000", "150808.647000", "150808.662000", "150808.665000", "150808.668000", "150808.671000", "150808.674000", "150808.677000", "150808.680000", "150808.683000", "150808.686000", "150808.689000", "150808.692000", "150808.696000", "150808.698000", "150808.701000", "150808.704000", "150808.707000", "150808.710000", "150808.713000", "150808.716000", "150808.719000", "150808.722000", "150808.726000", "150808.729000", "150808.732000", "150808.735000", "150808.738000", "150848.635000", "150848.638000", "150848.641000", "150848.644000", "150848.647000", "150848.658000", "150848.661000", "150848.664000", "150848.667000", "150848.678000", "150848.681000", "150848.684000", "150848.687000", "150848.690000", "150848.693000", "150848.696000", "150848.699000", "150848.702000", "150848.705000", "150848.708000", "150848.711000", "150848.714000", "150848.717000", "150848.720000", "150848.726000", "150848.729000", "150848.733000", "150848.736000", "150848.739000", "150848.742000", "150848.745000", "150928.636000", "150928.639000", "150928.642000", "150928.645000", "150928.648000", "150928.658000", "150928.661000", "150928.664000", "150928.667000", "150928.670000", "150928.673000", "150928.676000", "150928.678000", "150928.681000", "150928.684000", "150928.687000", "150928.690000", "150928.693000", "150928.696000", "150928.699000", "150928.702000", "150928.705000", "150928.708000", "150928.718000", "150928.721000", "150928.724000", "150928.727000", "150928.730000", "150928.733000", "150928.736000", "150928.739000", "150928.742000", "151008.636000", "151008.639000", "151008.642000", "151008.645000", "151008.648000", "151008.651000", "151008.654000", "151008.657000", "151008.660000", "151008.663000", "151008.666000", "151008.669000", "151008.672000", "151008.675000", "151008.678000", "151008.681000", "151008.684000", "151008.687000", "151008.690000", "151008.693000", "151008.696000", "151008.699000", "151008.702000", "151008.705000", "151008.708000", "151008.711000", "151008.714000", "151008.717000", "151008.720000", "151008.723000", "151008.726000", "151048.635000", "151048.639000", "151048.641000", "151048.644000", "151048.647000", "151048.651000", "151048.653000", "151048.656000", "151048.659000", "151048.663000", "151048.666000", "151048.669000", "151048.672000", "151048.675000", "151048.678000", "151048.681000", "151048.683000", "151048.687000", "151048.689000", "151048.698000", "151048.701000", "151048.704000", "151048.707000", "151048.710000", "151048.713000", "151048.716000", "151048.719000", "151048.721000", "151048.724000", "151048.727000", "151048.730000", "151128.636000", "151128.639000", "151128.642000", "151128.645000", "151128.649000", "151128.652000", "151128.654000", "151128.657000", "151128.661000", "151128.663000", "151128.666000", "151128.669000", "151128.672000", "151128.675000", "151128.678000", "151128.681000", "151128.686000", "151128.689000", "151128.692000", "151128.695000", "151128.698000", "151128.701000", "151128.704000", "151128.707000", "151128.710000", "151128.717000", "151128.720000", "151128.723000", "151128.726000", "151128.738000", "151128.741000", "151208.636000", "151208.639000", "151208.642000", "151208.645000", "151208.648000", "151208.651000", "151208.654000", "151208.657000", "151208.660000", "151208.663000", "151208.666000", "151208.669000", "151208.672000", "151208.675000", "151208.678000", "151208.681000", "151208.684000", "151208.687000", "151208.690000", "151208.693000", "151208.696000", "151208.699000", "151208.702000", "151208.705000", "151208.708000", "151208.711000", "151208.714000", "151208.717000", "151208.720000", "151208.723000", "151208.726000", "151208.729000", "151248.635000", "151248.638000", "151248.641000", "151248.644000", "151248.647000", "151248.650000", "151248.653000", "151248.657000", "151248.659000", "151248.662000", "151248.665000", "151248.668000", "151248.671000", "151248.674000", "151248.677000", "151248.681000", "151248.689000", "151248.692000", "151248.695000", "151248.698000", "151248.701000", "151248.704000", "151248.707000", "151248.710000", "151248.713000", "151248.716000", "151248.719000", "151248.722000", "151248.725000", "151248.727000", "151248.730000", "151328.635000", "151328.638000", "151328.641000", "151328.644000", "151328.647000", "151328.650000", "151328.653000", "151328.656000", "151328.659000", "151328.662000", "151328.665000", "151328.668000", "151328.671000", "151328.674000", "151328.677000", "151328.680000", "151328.683000", "151328.686000", "151328.689000", "151328.692000", "151328.695000", "151328.698000", "151328.701000", "151328.704000", "151328.707000", "151328.710000", "151328.713000", "151328.716000", "151328.719000", "151328.722000", "151328.725000", "151408.636000", "151408.639000", "151408.642000", "151408.645000", "151408.648000", "151408.651000", "151408.654000", "151408.657000", "151408.660000", "151408.663000", "151408.666000", "151408.669000", "151408.672000", "151408.675000", "151408.678000", "151408.681000", "151408.684000", "151408.687000", "151408.690000", "151408.693000", "151408.696000", "151408.699000", "151408.704000", "151408.709000", "151408.713000", "151408.716000", "151408.719000", "151408.722000", "151408.725000", "151408.728000", "151408.731000", "151444.572000", "151444.576000", "151444.580000", "151444.584000", "151444.587000", "151444.590000", "151444.593000", "151444.597000", "151444.600000", "151444.604000", "151444.607000", "151444.611000", "151444.614000", "151444.623000", "151444.627000", "151444.630000", "151444.634000", "151444.637000", "151444.641000", "151444.645000", "151444.648000", "151444.651000", "151444.654000", "151444.657000", "151444.660000", "151444.663000", "151444.666000", "151444.669000", "151444.672000"],
      "InstanceCreationTime": ["150728.642000", "150728.645000", "150728.648000", "150728.656000", "150728.659000", "150728.662000", "150728.665000", "150728.668000", "150728.671000", "150728.674000", "150728.677000", "150728.680000", "150728.682000", "150728.685000", "150728.689000", "150728.692000", "150728.695000", "150728.698000", "150728.701000", "150728.704000", "150728.707000", "150728.719000", "150728.722000", "150728.725000", "150728.728000", "150728.742000", "150728.745000", "150728.748000", "150728.751000", "150728.754000", "150728.757000", "150728.760000", "150808.635000", "150808.638000", "150808.641000", "150808.644000", "150808.647000", "150808.662000", "150808.665000", "150808.668000", "150808.671000", "150808.674000", "150808.677000", "150808.680000", "150808.683000", "150808.686000", "150808.689000", "150808.692000", "150808.696000", "150808.698000", "150808.701000", "150808.704000", "150808.707000", "150808.710000", "150808.713000", "150808.716000", "150808.719000", "150808.722000", "150808.726000", "150808.729000", "150808.732000", "150808.735000", "150808.738000", "150848.635000", "150848.638000", "150848.641000", "150848.644000", "150848.647000", "150848.658000", "150848.661000", "150848.664000", "150848.667000", "150848.678000", "150848.681000", "150848.684000", "150848.687000", "150848.690000", "150848.693000", "150848.696000", "150848.699000", "150848.702000", "150848.705000", "150848.708000", "150848.711000", "150848.714000", "150848.717000", "150848.720000", "150848.726000", "150848.729000", "150848.733000", "150848.736000", "150848.739000", "150848.742000", "150848.745000", "150928.636000", "150928.639000", "150928.642000", "150928.645000", "150928.648000", "150928.658000", "150928.661000", "150928.664000", "150928.667000", "150928.670000", "150928.673000", "150928.676000", "150928.678000", "150928.681000", "150928.684000", "150928.687000", "150928.690000", "150928.693000", "150928.696000", "150928.699000", "150928.702000", "150928.705000", "150928.708000", "150928.718000", "150928.721000", "150928.724000", "150928.727000", "150928.730000", "150928.733000", "150928.736000", "150928.739000", "150928.742000", "151008.636000", "151008.639000", "151008.642000", "151008.645000", "151008.648000", "151008.651000", "151008.654000", "151008.657000", "151008.660000", "151008.663000", "151008.666000", "151008.669000", "151008.672000", "151008.675000", "151008.678000", "151008.681000", "151008.684000", "151008.687000", "151008.690000", "151008.693000", "151008.696000", "151008.699000", "151008.702000", "151008.705000", "151008.708000", "151008.711000", "151008.714000", "151008.717000", "151008.720000", "151008.723000", "151008.726000", "151048.635000", "151048.639000", "151048.641000", "151048.644000", "151048.647000", "151048.651000", "151048.653000", "151048.656000", "151048.659000", "151048.663000", "151048.666000", "151048.669000", "151048.672000", "151048.675000", "151048.678000", "151048.681000", "151048.683000", "151048.687000", "151048.689000", "151048.698000", "151048.701000", "151048.704000", "151048.707000", "151048.710000", "151048.713000", "151048.716000", "151048.719000", "151048.721000", "151048.724000", "151048.727000", "151048.730000", "151128.636000", "151128.639000", "151128.642000", "151128.645000", "151128.649000", "151128.652000", "151128.654000", "151128.657000", "151128.661000", "151128.663000", "151128.666000", "151128.669000", "151128.672000", "151128.675000", "151128.678000", "151128.681000", "151128.686000", "151128.689000", "151128.692000", "151128.695000", "151128.698000", "151128.701000", "151128.704000", "151128.707000", "151128.710000", "151128.717000", "151128.720000", "151128.723000", "151128.726000", "151128.738000", "151128.741000", "151208.636000", "151208.639000", "151208.642000", "151208.645000", "151208.648000", "151208.651000", "151208.654000", "151208.657000", "151208.660000", "151208.663000", "151208.666000", "151208.669000", "151208.672000", "151208.675000", "151208.678000", "151208.681000", "151208.684000", "151208.687000", "151208.690000", "151208.693000", "151208.696000", "151208.699000", "151208.702000", "151208.705000", "151208.708000", "151208.711000", "151208.714000", "151208.717000", "151208.720000", "151208.723000", "151208.726000", "151208.729000", "151248.635000", "151248.638000", "151248.641000", "151248.644000", "151248.647000", "151248.650000", "151248.653000", "151248.657000", "151248.659000", "151248.662000", "151248.665000", "151248.668000", "151248.671000", "151248.674000", "151248.677000", "151248.681000", "151248.689000", "151248.692000", "151248.695000", "151248.698000", "151248.701000", "151248.704000", "151248.707000", "151248.710000", "151248.713000", "151248.716000", "151248.719000", "151248.722000", "151248.725000", "151248.727000", "151248.730000", "151328.635000", "151328.638000", "151328.641000", "151328.644000", "151328.647000", "151328.650000", "151328.653000", "151328.656000", "151328.659000", "151328.662000", "151328.665000", "151328.668000", "151328.671000", "151328.674000", "151328.677000", "151328.680000", "151328.683000", "151328.686000", "151328.689000", "151328.692000", "151328.695000", "151328.698000", "151328.701000", "151328.704000", "151328.707000", "151328.710000", "151328.713000", "151328.716000", "151328.719000", "151328.722000", "151328.725000", "151408.636000", "151408.639000", "151408.642000", "151408.645000", "151408.648000", "151408.651000", "151408.654000", "151408.657000", "151408.660000", "151408.663000", "151408.666000", "151408.669000", "151408.672000", "151408.675000", "151408.678000", "151408.681000", "151408.684000", "151408.687000", "151408.690000", "151408.693000", "151408.696000", "151408.699000", "151408.704000", "151408.709000", "151408.713000", "151408.716000", "151408.719000", "151408.722000", "151408.725000", "151408.728000", "151408.731000", "151444.572000", "151444.576000", "151444.580000", "151444.584000", "151444.587000", "151444.590000", "151444.593000", "151444.597000", "151444.600000", "151444.604000", "151444.607000", "151444.611000", "151444.614000", "151444.623000", "151444.627000", "151444.630000", "151444.634000", "151444.637000", "151444.641000", "151444.645000", "151444.648000", "151444.651000", "151444.654000", "151444.657000", "151444.660000", "151444.663000", "151444.666000", "151444.669000", "151444.672000"],
      "InstanceNumber": [1, 2, 3, 4, 5, 6, 7, 8, 9, 10, 11, 12, 13, 14, 15, 16, 17, 18, 19, 20, 21, 22, 23, 24, 25, 26, 27, 28, 29, 30, 31, 32, 33, 34, 35, 36, 37, 38, 39, 40, 41, 42, 43, 44, 45, 46, 47, 48, 49, 50, 51, 52, 53, 54, 55, 56, 57, 58, 59, 60, 61, 62, 63, 64, 65, 66, 67, 68, 69, 70, 71, 72, 73, 74, 75, 76, 77, 78, 79, 80, 81, 82, 83, 84, 85, 86, 87, 88, 89, 90, 91, 92, 93, 94, 95, 96, 97, 98, 99, 100, 101, 102, 103, 104, 105, 106, 107, 108, 109, 110, 111, 112, 113, 114, 115, 116, 117, 118, 119, 120, 121, 122, 123, 124, 125, 126, 127, 128, 129, 130, 131, 132, 133, 134, 135, 136, 137, 138, 139, 140, 141, 142, 143, 144, 145, 146, 147, 148, 149, 150, 151, 152, 153, 154, 155, 156, 157, 158, 159, 160, 161, 162, 163, 164, 165, 166, 167, 168, 169, 170, 171, 172, 173, 174, 175, 176, 177, 178, 179, 180, 181, 182, 183, 184, 185, 186, 187, 188, 189, 190, 191, 192, 193, 194, 195, 196, 197, 198, 199, 200, 201, 202, 203, 204, 205, 206, 207, 208, 209, 210, 211, 212, 213, 214, 215, 216, 217, 218, 219, 220, 221, 222, 223, 224, 225, 226, 227, 228, 229, 230, 231, 232, 233, 234, 235, 236, 237, 238, 239, 240, 241, 242, 243, 244, 245, 246, 247, 248, 249, 250, 251, 252, 253, 254, 255, 256, 257, 258, 259, 260, 261, 262, 263, 264, 265, 266, 267, 268, 269, 270, 271, 272, 273, 274, 275, 276, 277, 278, 279, 280, 281, 282, 283, 284, 285, 286, 287, 288, 289, 290, 291, 292, 293, 294, 295, 296, 297, 298, 299, 300, 301, 302, 303, 304, 305, 306, 307, 308, 309, 310, 311, 312, 313, 314, 315, 316, 317, 318, 319, 320, 321, 322, 323, 324, 325, 326, 327, 328, 329, 330, 331, 332, 333, 334, 335, 336, 337, 338, 339, 340, 341, 342, 343, 344, 345, 346, 347, 348, 349, 350, 351, 352, 353, 354, 355, 356, 357, 358, 359, 360, 361, 362, 363, 364, 365, 366, 367, 368, 369, 370, 371, 372, 373],
