{
  "AcquisitionMatrixPE": 108,
  "AcquisitionNumber": 1,
  "AcquisitionTime": "14:34:38.840000",
  "BandwidthPerPixelPhaseEncode": 15.964,
  "BaseResolution": 108,
  "BodyPartExamined": "BRAIN",
  "ConsistencyInfo": "N4_VE11C_LATEST_20160120",
  "ConversionSoftware": "dcm2niix",
  "ConversionSoftwareVersion": "v1.0.20180622 GCC6.3.0",
  "DerivedVendorReportedEchoSpacing": 0.000580009,
  "DeviceSerialNumber": "66054",
  "DwellTime": 2.1e-06,
  "EchoTime": 0.031,
  "EchoTrainLength": 95,
  "EffectiveEchoSpacing": 0.000580009,
  "FlipAngle": 64,
  "ImageOrientationPatientDICOM": [0.995476, 0.0947812, -0.00667403, -0.0905954, 0.925642, -0.367396],
  "ImageType": [
    "ORIGINAL",
    "PRIMARY",
    "M",
    "ND",
    "MOSAIC"
],
  "InPlanePhaseEncodingDirectionDICOM": "COL",
  "InstitutionAddress": "Chemin_des_Mines_9_Geneve_District_CH_1211",
  "InstitutionName": "Fondation_Campus_Biotech_Geneva",
  "InstitutionalDepartmentName": "Department",
  "MRAcquisitionType": "2D",
  "MagneticFieldStrength": 3,
  "Manufacturer": "Siemens",
  "ManufacturersModelName": "Prisma",
  "Modality": "MR",
  "MultibandAccelerationFactor": 4,
  "PartialFourier": 0.875,
  "PatientPosition": "HFS",
  "PercentPhaseFOV": 100,
  "PhaseEncodingDirection": "j-",
  "PhaseEncodingSteps": 95,
  "PhaseResolution": 1,
  "PixelBandwidth": 2205,
  "ProcedureStepDescription": "J.DRM_Michael",
  "ProtocolName": "Run4_bold_s4_TR1.28",
  "PulseSequenceDetails": "%SiemensSeq%_ep2d_bold",
  "ReceiveCoilActiveElements": "HC1-7;NC1,2",
  "ReceiveCoilName": "HeadNeck_64",
  "ReconMatrixPE": 108,
  "RepetitionTime": 1.28,
  "SAR": 0.0779132,
  "ScanOptions": "PFP_FS",
  "ScanningSequence": "EP",
  "SequenceName": "_epfid2d1_108",
  "SequenceVariant": "SK",
  "SeriesDescription": "Run4_bold_s4_TR1.28",
  "SeriesNumber": 13,
  "ShimSetting": [-1245, -11681, 6462, 702, 131, -184, -135, 40],
  "SliceThickness": 2,
  "SliceTiming": [0.945, 0, 0.63, 0.08, 0.71, 0.1575, 0.7875, 0.2375, 0.8675, 0.395, 1.025, 0.4725, 1.1025, 0.5525, 1.1825, 0.315, 0.945, 0, 0.63, 0.08, 0.71, 0.1575, 0.7875, 0.2375, 0.8675, 0.395, 1.025, 0.4725, 1.1025, 0.5525, 1.1825, 0.315, 0.945, 0, 0.63, 0.08, 0.71, 0.1575, 0.7875, 0.2375, 0.8675, 0.395, 1.025, 0.4725, 1.1025, 0.5525, 1.1825, 0.315, 0.945, 0, 0.63, 0.08, 0.71, 0.1575, 0.7875, 0.2375, 0.8675, 0.395, 1.025, 0.4725, 1.1025, 0.5525, 1.1825, 0.315],
  "SoftwareVersions": "syngo_MR_E11",
  "SpacingBetweenSlices": 2,
  "StationName": "AWP66054",
  "TaskName": "main",
  "TotalReadoutTime": 0.0620609,
  "TxRefAmp": 283.57,
  "dcmmeta_affine": [
    [-1.9817341566085815, -0.1803518831729889, 0.05728902667760849, 110.31637573242188],
    [-0.18868489563465118, 1.8427125215530396, -0.7326774001121521, -52.56259536743164],
    [-0.013286272063851357, 0.7313907146453857, 1.8600810766220093, -103.27725219726562],
    [0.0, 0.0, 0.0, 1.0]
],
  "dcmmeta_reorient_transform": [
    [0.0, -1.0, 0.0, 107.0],
    [1.0, 0.0, 0.0, 0.0],
    [0.0, 0.0, 1.0, 0.0],
    [0.0, 0.0, 0.0, 1.0]
],
  "dcmmeta_shape": [108, 108, 64, 373],
  "dcmmeta_slice_dim": 2,
  "dcmmeta_version": 0.6,
  "global": {
    "const": {
      "AccessionNumber": "",
      "AcquisitionMatrix": [108, 0, 0, 108],
      "AngioFlag": "N",
      "BitsAllocated": 16,
      "BitsStored": 12,
      "BodyPartExamined": "BRAIN",
      "Columns": 864,
      "EchoNumbers": 1,
      "EchoTime": 31.0,
      "EchoTrainLength": 95,
      "FlipAngle": 64.0,
      "HighBit": 11,
      "ImageOrientationPatient": [0.99547575150306, 0.09478125043896, -0.0066740343603, -0.0905953642417, 0.92564164945166, -0.3673962666908],
      "ImagePositionPatient": [-771.94123025671, -912.4758951453, 256.46946180423],
      "ImageType": [
        "ORIGINAL",
        "PRIMARY",
        "M",
        "ND",
        "MOSAIC"
],
      "ImagedNucleus": "1H",
      "ImagingFrequency": 123.257379,
      "InPlanePhaseEncodingDirection": "COL",
      "MRAcquisitionType": "2D",
      "MagneticFieldStrength": 3.0,
      "Manufacturer": "SIEMENS",
      "ManufacturerModelName": "Prisma",
      "Modality": "MR",
      "NumberOfAverages": 1.0,
      "NumberOfPhaseEncodingSteps": 95,
      "PercentPhaseFieldOfView": 100.0,
      "PercentSampling": 100.0,
      "PerformedProcedureStepStartTime": "135150.676000",
      "PhotometricInterpretation": "MONOCHROME2",
      "PixelBandwidth": 2205.0,
      "PixelRepresentation": 0,
      "PixelSpacing": [1.990740776062, 1.990740776062],
      "PositionReferenceIndicator": "",
      "ProtocolName": "Run4_bold_s4_TR1.28",
      "RepetitionTime": 1280.0,
      "Rows": 864,
      "SAR": 0.07791316436441,
      "SamplesPerPixel": 1,
      "ScanOptions": [
        "PFP",
        "FS"
],
      "ScanningSequence": "EP",
      "SequenceName": "*epfid2d1_108",
      "SequenceVariant": "SK",
      "SeriesDescription": "Run4_bold_s4_TR1.28",
      "SeriesNumber": 13,
      "SeriesTime": "143512.239000",
      "SliceLocation": -73.636361075655,
      "SliceThickness": 2.0,
      "SmallestImagePixelValue": 0,
      "SoftwareVersions": "syngo MR E11",
      "SpacingBetweenSlices": 2.0000000164926,
      "SpecificCharacterSet": "ISO_IR 100",
      "StudyID": "1",
      "StudyTime": "135150.606000",
      "TransmitCoilName": "Body",
      "VariableFlipAngleFlag": "N",
      "WindowCenterWidthExplanation": "Algo1",
      "dBdt": 0.0},
    "slices": {}
  },
  "time": {
    "samples": {
      "AcquisitionNumber": [1, 2, 3, 4, 5, 6, 7, 8, 9, 10, 11, 12, 13, 14, 15, 16, 17, 18, 19, 20, 21, 22, 23, 24, 25, 26, 27, 28, 29, 30, 31, 32, 33, 34, 35, 36, 37, 38, 39, 40, 41, 42, 43, 44, 45, 46, 47, 48, 49, 50, 51, 52, 53, 54, 55, 56, 57, 58, 59, 60, 61, 62, 63, 64, 65, 66, 67, 68, 69, 70, 71, 72, 73, 74, 75, 76, 77, 78, 79, 80, 81, 82, 83, 84, 85, 86, 87, 88, 89, 90, 91, 92, 93, 94, 95, 96, 97, 98, 99, 100, 101, 102, 103, 104, 105, 106, 107, 108, 109, 110, 111, 112, 113, 114, 115, 116, 117, 118, 119, 120, 121, 122, 123, 124, 125, 126, 127, 128, 129, 130, 131, 132, 133, 134, 135, 136, 137, 138, 139, 140, 141, 142, 143, 144, 145, 146, 147, 148, 149, 150, 151, 152, 153, 154, 155, 156, 157, 158, 159, 160, 161, 162, 163, 164, 165, 166, 167, 168, 169, 170, 171, 172, 173, 174, 175, 176, 177, 178, 179, 180, 181, 182, 183, 184, 185, 186, 187, 188, 189, 190, 191, 192, 193, 194, 195, 196, 197, 198, 199, 200, 201, 202, 203, 204, 205, 206, 207, 208, 209, 210, 211, 212, 213, 214, 215, 216, 217, 218, 219, 220, 221, 222, 223, 224, 225, 226, 227, 228, 229, 230, 231, 232, 233, 234, 235, 236, 237, 238, 239, 240, 241, 242, 243, 244, 245, 246, 247, 248, 249, 250, 251, 252, 253, 254, 255, 256, 257, 258, 259, 260, 261, 262, 263, 264, 265, 266, 267, 268, 269, 270, 271, 272, 273, 274, 275, 276, 277, 278, 279, 280, 281, 282, 283, 284, 285, 286, 287, 288, 289, 290, 291, 292, 293, 294, 295, 296, 297, 298, 299, 300, 301, 302, 303, 304, 305, 306, 307, 308, 309, 310, 311, 312, 313, 314, 315, 316, 317, 318, 319, 320, 321, 322, 323, 324, 325, 326, 327, 328, 329, 330, 331, 332, 333, 334, 335, 336, 337, 338, 339, 340, 341, 342, 343, 344, 345, 346, 347, 348, 349, 350, 351, 352, 353, 354, 355, 356, 357, 358, 359, 360, 361, 362, 363, 364, 365, 366, 367, 368, 369, 370, 371, 372, 373],
      "AcquisitionTime": ["143438.840000", "143440.120000", "143441.400000", "143442.680000", "143443.960000", "143445.240000", "143446.520000", "143447.800000", "143449.080000", "143450.360000", "143451.640000", "143452.920000", "143454.200000", "143455.480000", "143456.760000", "143458.040000", "143459.320000", "143500.600000", "143501.880000", "143503.160000", "143504.440000", "143505.720000", "143507.000000", "143508.280000", "143509.560000", "143510.840000", "143512.120000", "143513.400000", "143514.680000", "143515.960000", "143517.240000", "143518.520000", "143519.800000", "143521.080000", "143522.360000", "143523.640000", "143524.920000", "143526.200000", "143527.480000", "143528.760000", "143530.040000", "143531.320000", "143532.600000", "143533.880000", "143535.160000", "143536.440000", "143537.720000", "143539.000000", "143540.280000", "143541.560000", "143542.840000", "143544.120000", "143545.400000", "143546.680000", "143547.960000", "143549.240000", "143550.520000", "143551.800000", "143553.080000", "143554.360000", "143555.640000", "143556.920000", "143558.200000", "143559.480000", "143600.760000", "143602.040000", "143603.320000", "143604.600000", "143605.880000", "143607.160000", "143608.440000", "143609.720000", "143611.000000", "143612.280000", "143613.560000", "143614.840000", "143616.120000", "143617.400000", "143618.680000", "143619.960000", "143621.240000", "143622.520000", "143623.800000", "143625.080000", "143626.360000", "143627.640000", "143628.920000", "143630.200000", "143631.480000", "143632.760000", "143634.040000", "143635.320000", "143636.600000", "143637.880000", "143639.160000", "143640.440000", "143641.720000", "143643.000000", "143644.280000", "143645.560000", "143646.840000", "143648.120000", "143649.400000", "143650.680000", "143651.960000", "143653.240000", "143654.520000", "143655.800000", "143657.080000", "143658.360000", "143659.640000", "143700.920000", "143702.200000", "143703.480000", "143704.760000", "143706.040000", "143707.320000", "143708.600000", "143709.880000", "143711.160000", "143712.440000", "143713.720000", "143715.000000", "143716.280000", "143717.560000", "143718.840000", "143720.120000", "143721.400000", "143722.680000", "143723.960000", "143725.240000", "143726.520000", "143727.800000", "143729.080000", "143730.360000", "143731.640000", "143732.920000", "143734.200000", "143735.480000", "143736.760000", "143738.040000", "143739.320000", "143740.600000", "143741.880000", "143743.160000", "143744.440000", "143745.720000", "143747.000000", "143748.280000", "143749.560000", "143750.840000", "143752.120000", "143753.400000", "143754.680000", "143755.960000", "143757.240000", "143758.520000", "143759.800000", "143801.080000", "143802.360000", "143803.640000", "143804.920000", "143806.200000", "143807.480000", "143808.760000", "143810.040000", "143811.320000", "143812.600000", "143813.880000", "143815.160000", "143816.440000", "143817.720000", "143819.000000", "143820.280000", "143821.560000", "143822.840000", "143824.120000", "143825.400000", "143826.680000", "143827.960000", "143829.240000", "143830.520000", "143831.800000", "143833.080000", "143834.360000", "143835.640000", "143836.920000", "143838.200000", "143839.480000", "143840.760000", "143842.040000", "143843.320000", "143844.600000", "143845.880000", "143847.160000", "143848.440000", "143849.720000", "143851.000000", "143852.280000", "143853.560000", "143854.840000", "143856.120000", "143857.400000", "143858.680000", "143859.960000", "143901.240000", "143902.520000", "143903.800000", "143905.080000", "143906.360000", "143907.640000", "143908.920000", "143910.200000", "143911.480000", "143912.760000", "143914.040000", "143915.320000", "143916.600000", "143917.880000", "143919.160000", "143920.440000", "143921.720000", "143923.000000", "143924.280000", "143925.560000", "143926.840000", "143928.120000", "143929.400000", "143930.680000", "143931.960000", "143933.240000", "143934.520000", "143935.800000", "143937.080000", "143938.360000", "143939.640000", "143940.920000", "143942.200000", "143943.480000", "143944.760000", "143946.040000", "143947.320000", "143948.600000", "143949.880000", "143951.160000", "143952.440000", "143953.720000", "143955.000000", "143956.280000", "143957.560000", "143958.840000", "144000.120000", "144001.400000", "144002.680000", "144003.960000", "144005.240000", "144006.520000", "144007.800000", "144009.080000", "144010.360000", "144011.640000", "144012.920000", "144014.200000", "144015.480000", "144016.760000", "144018.040000", "144019.320000", "144020.600000", "144021.880000", "144023.160000", "144024.440000", "144025.720000", "144027.000000", "144028.280000", "144029.560000", "144030.840000", "144032.120000", "144033.400000", "144034.680000", "144035.960000", "144037.240000", "144038.520000", "144039.800000", "144041.080000", "144042.360000", "144043.640000", "144044.920000", "144046.200000", "144047.480000", "144048.760000", "144050.040000", "144051.320000", "144052.600000", "144053.880000", "144055.160000", "144056.440000", "144057.720000", "144059.000000", "144100.280000", "144101.560000", "144102.840000", "144104.120000", "144105.400000", "144106.680000", "144107.960000", "144109.240000", "144110.520000", "144111.800000", "144113.080000", "144114.360000", "144115.640000", "144116.920000", "144118.200000", "144119.480000", "144120.760000", "144122.040000", "144123.320000", "144124.600000", "144125.880000", "144127.160000", "144128.440000", "144129.720000", "144131.000000", "144132.280000", "144133.560000", "144134.840000", "144136.120000", "144137.400000", "144138.680000", "144139.960000", "144141.240000", "144142.520000", "144143.800000", "144145.080000", "144146.360000", "144147.640000", "144148.920000", "144150.200000", "144151.480000", "144152.760000", "144154.040000", "144155.320000", "144156.600000", "144157.880000", "144159.160000", "144200.440000", "144201.720000", "144203.000000", "144204.280000", "144205.560000", "144206.840000", "144208.120000", "144209.400000", "144210.680000", "144211.960000", "144213.240000", "144214.520000", "144215.800000", "144217.080000", "144218.360000", "144219.640000", "144220.920000", "144222.200000", "144223.480000", "144224.760000", "144226.040000", "144227.320000", "144228.600000", "144229.880000", "144231.160000", "144232.440000", "144233.720000", "144235.000000"],
      "ContentTime": ["143512.243000", "143512.247000", "143512.249000", "143512.252000", "143512.255000", "143512.258000", "143512.261000", "143512.270000", "143512.273000", "143512.276000", "143512.279000", "143512.282000", "143512.285000", "143512.288000", "143512.291000", "143512.294000", "143512.301000", "143512.304000", "143512.307000", "143512.310000", "143512.313000", "143512.316000", "143512.318000", "143512.321000", "143512.324000", "143512.327000", "143552.222000", "143552.225000", "143552.228000", "143552.230000", "143552.233000", "143552.236000", "143552.239000", "143552.242000", "143552.245000", "143552.248000", "143552.251000", "143552.253000", "143552.256000", "143552.259000", "143552.262000", "143552.265000", "143552.268000", "143552.271000", "143552.273000", "143552.276000", "143552.279000", "143552.282000", "143552.285000", "143552.297000", "143552.300000", "143552.303000", "143552.306000", "143552.308000", "143552.311000", "143552.314000", "143552.317000", "143632.222000", "143632.225000", "143632.228000", "143632.231000", "143632.233000", "143632.236000", "143632.239000", "143632.242000", "143632.245000", "143632.247000", "143632.250000", "143632.253000", "143632.256000", "143632.259000", "143632.262000", "143632.265000", "143632.267000", "143632.270000", "143632.273000", "143632.276000", "143632.279000", "143632.282000", "143632.285000", "143632.288000", "143632.291000", "143632.294000", "143632.296000", "143632.311000", "143632.313000", "143632.316000", "143632.319000", "143712.223000", "143712.226000", "143712.229000", "143712.232000", "143712.235000", "143712.238000", "143712.241000", "143712.244000", "143712.247000", "143712.250000", "143712.253000", "143712.256000", "143712.259000", "143712.262000", "143712.265000", "143712.267000", "143712.270000", "143712.273000", "143712.276000", "143712.279000", "143712.282000", "143712.291000", "143712.294000", "143712.297000", "143712.300000", "143712.303000", "143712.306000", "143712.308000", "143712.311000", "143712.314000", "143712.317000", "143752.222000", "143752.225000", "143752.228000", "143752.231000", "143752.233000", "143752.236000", "143752.239000", "143752.242000", "143752.245000", "143752.248000", "143752.251000", "143752.253000", "143752.256000", "143752.259000", "143752.262000", "143752.265000", "143752.268000", "143752.270000", "143752.273000", "143752.276000", "143752.279000", "143752.282000", "143752.285000", "143752.288000", "143752.290000", "143752.293000", "143752.296000", "143752.299000", "143752.302000", "143752.305000", "143752.308000", "143752.310000", "143832.222000", "143832.225000", "143832.228000", "143832.231000", "143832.234000", "143832.237000", "143832.239000", "143832.242000", "143832.245000", "143832.248000", "143832.251000", "143832.254000", "143832.261000", "143832.264000", "143832.267000", "143832.270000", "143832.273000", "143832.276000", "143832.278000", "143832.281000", "143832.284000", "143832.287000", "143832.290000", "143832.293000", "143832.296000", "143832.299000", "143832.301000", "143832.304000", "143832.307000", "143832.310000", "143832.313000", "143912.223000", "143912.226000", "143912.229000", "143912.232000", "143912.235000", "143912.237000", "143912.240000", "143912.243000", "143912.246000", "143912.267000", "143912.269000", "143912.272000", "143912.275000", "143912.278000", "143912.281000", "143912.284000", "143912.287000", "143912.290000", "143912.292000", "143912.295000", "143912.298000", "143912.301000", "143912.304000", "143912.307000", "143912.310000", "143912.313000", "143912.315000", "143912.318000", "143912.321000", "143912.324000", "143912.327000", "143952.223000", "143952.226000", "143952.229000", "143952.231000", "143952.234000", "143952.237000", "143952.240000", "143952.243000", "143952.246000", "143952.249000", "143952.252000", "143952.255000", "143952.257000", "143952.260000", "143952.263000", "143952.266000", "143952.269000", "143952.272000", "143952.275000", "143952.278000", "143952.281000", "143952.283000", "143952.286000", "143952.289000", "143952.292000", "143952.305000", "143952.308000", "143952.311000", "143952.314000", "143952.317000", "143952.320000", "143952.323000", "144032.222000", "144032.225000", "144032.228000", "144032.231000", "144032.233000", "144032.236000", "144032.239000", "144032.242000", "144032.245000", "144032.248000", "144032.251000", "144032.253000", "144032.256000", "144032.259000", "144032.269000", "144032.272000", "144032.275000", "144032.277000", "144032.280000", "144032.283000", "144032.286000", "144032.289000", "144032.292000", "144032.295000", "144032.297000", "144032.300000", "144032.303000", "144032.316000", "144032.319000", "144032.321000", "144032.324000", "144112.223000", "144112.226000", "144112.229000", "144112.232000", "144112.235000", "144112.238000", "144112.241000", "144112.243000", "144112.246000", "144112.249000", "144112.252000", "144112.255000", "144112.258000", "144112.261000", "144112.264000", "144112.267000", "144112.270000", "144112.272000", "144112.276000", "144112.278000", "144112.281000", "144112.284000", "144112.287000", "144112.290000", "144112.293000", "144112.296000", "144112.299000", "144112.302000", "144112.304000", "144112.307000", "144112.310000", "144152.223000", "144152.226000", "144152.229000", "144152.232000", "144152.235000", "144152.238000", "144152.241000", "144152.244000", "144152.246000", "144152.249000", "144152.252000", "144152.255000", "144152.258000", "144152.261000", "144152.264000", "144152.267000", "144152.270000", "144152.273000", "144152.275000", "144152.278000", "144152.281000", "144152.284000", "144152.287000", "144152.290000", "144152.293000", "144152.296000", "144152.299000", "144152.302000", "144152.305000", "144152.308000", "144152.310000", "144232.222000", "144232.225000", "144232.228000", "144232.231000", "144232.234000", "144232.236000", "144232.239000", "144232.242000", "144232.245000", "144232.248000", "144232.251000", "144232.254000", "144232.257000", "144232.259000", "144232.263000", "144232.265000", "144232.268000", "144232.271000", "144232.274000", "144232.277000", "144232.280000", "144232.283000", "144232.286000", "144232.289000", "144232.291000", "144232.294000", "144232.297000", "144232.300000", "144232.303000", "144232.306000", "144232.309000", "144232.312000", "144236.053000", "144236.058000", "144236.061000"],
      "InstanceCreationTime": ["143512.243000", "143512.247000", "143512.249000", "143512.252000", "143512.255000", "143512.258000", "143512.261000", "143512.270000", "143512.273000", "143512.276000", "143512.279000", "143512.282000", "143512.285000", "143512.288000", "143512.291000", "143512.294000", "143512.301000", "143512.304000", "143512.307000", "143512.310000", "143512.313000", "143512.316000", "143512.318000", "143512.321000", "143512.324000", "143512.327000", "143552.222000", "143552.225000", "143552.228000", "143552.230000", "143552.233000", "143552.236000", "143552.239000", "143552.242000", "143552.245000", "143552.248000", "143552.251000", "143552.253000", "143552.256000", "143552.259000", "143552.262000", "143552.265000", "143552.268000", "143552.271000", "143552.273000", "143552.276000", "143552.279000", "143552.282000", "143552.285000", "143552.297000", "143552.300000", "143552.303000", "143552.306000", "143552.308000", "143552.311000", "143552.314000", "143552.317000", "143632.222000", "143632.225000", "143632.228000", "143632.231000", "143632.233000", "143632.236000", "143632.239000", "143632.242000", "143632.245000", "143632.247000", "143632.250000", "143632.253000", "143632.256000", "143632.259000", "143632.262000", "143632.265000", "143632.267000", "143632.270000", "143632.273000", "143632.276000", "143632.279000", "143632.282000", "143632.285000", "143632.288000", "143632.291000", "143632.294000", "143632.296000", "143632.311000", "143632.313000", "143632.316000", "143632.319000", "143712.223000", "143712.226000", "143712.229000", "143712.232000", "143712.235000", "143712.238000", "143712.241000", "143712.244000", "143712.247000", "143712.250000", "143712.253000", "143712.256000", "143712.259000", "143712.262000", "143712.265000", "143712.267000", "143712.270000", "143712.273000", "143712.276000", "143712.279000", "143712.282000", "143712.291000", "143712.294000", "143712.297000", "143712.300000", "143712.303000", "143712.306000", "143712.308000", "143712.311000", "143712.314000", "143712.317000", "143752.222000", "143752.225000", "143752.228000", "143752.231000", "143752.233000", "143752.236000", "143752.239000", "143752.242000", "143752.245000", "143752.248000", "143752.251000", "143752.253000", "143752.256000", "143752.259000", "143752.262000", "143752.265000", "143752.268000", "143752.270000", "143752.273000", "143752.276000", "143752.279000", "143752.282000", "143752.285000", "143752.288000", "143752.290000", "143752.293000", "143752.296000", "143752.299000", "143752.302000", "143752.305000", "143752.308000", "143752.310000", "143832.222000", "143832.225000", "143832.228000", "143832.231000", "143832.234000", "143832.237000", "143832.239000", "143832.242000", "143832.245000", "143832.248000", "143832.251000", "143832.254000", "143832.261000", "143832.264000", "143832.267000", "143832.270000", "143832.273000", "143832.276000", "143832.278000", "143832.281000", "143832.284000", "143832.287000", "143832.290000", "143832.293000", "143832.296000", "143832.299000", "143832.301000", "143832.304000", "143832.307000", "143832.310000", "143832.313000", "143912.223000", "143912.226000", "143912.229000", "143912.232000", "143912.235000", "143912.237000", "143912.240000", "143912.243000", "143912.246000", "143912.267000", "143912.269000", "143912.272000", "143912.275000", "143912.278000", "143912.281000", "143912.284000", "143912.287000", "143912.290000", "143912.292000", "143912.295000", "143912.298000", "143912.301000", "143912.304000", "143912.307000", "143912.310000", "143912.313000", "143912.315000", "143912.318000", "143912.321000", "143912.324000", "143912.327000", "143952.223000", "143952.226000", "143952.229000", "143952.231000", "143952.234000", "143952.237000", "143952.240000", "143952.243000", "143952.246000", "143952.249000", "143952.252000", "143952.255000", "143952.257000", "143952.260000", "143952.263000", "143952.266000", "143952.269000", "143952.272000", "143952.275000", "143952.278000", "143952.281000", "143952.283000", "143952.286000", "143952.289000", "143952.292000", "143952.305000", "143952.308000", "143952.311000", "143952.314000", "143952.317000", "143952.320000", "143952.323000", "144032.222000", "144032.225000", "144032.228000", "144032.231000", "144032.233000", "144032.236000", "144032.239000", "144032.242000", "144032.245000", "144032.248000", "144032.251000", "144032.253000", "144032.256000", "144032.259000", "144032.269000", "144032.272000", "144032.275000", "144032.277000", "144032.280000", "144032.283000", "144032.286000", "144032.289000", "144032.292000", "144032.295000", "144032.297000", "144032.300000", "144032.303000", "144032.316000", "144032.319000", "144032.321000", "144032.324000", "144112.223000", "144112.226000", "144112.229000", "144112.232000", "144112.235000", "144112.238000", "144112.241000", "144112.243000", "144112.246000", "144112.249000", "144112.252000", "144112.255000", "144112.258000", "144112.261000", "144112.264000", "144112.267000", "144112.270000", "144112.272000", "144112.276000", "144112.278000", "144112.281000", "144112.284000", "144112.287000", "144112.290000", "144112.293000", "144112.296000", "144112.299000", "144112.302000", "144112.304000", "144112.307000", "144112.310000", "144152.223000", "144152.226000", "144152.229000", "144152.232000", "144152.235000", "144152.238000", "144152.241000", "144152.244000", "144152.246000", "144152.249000", "144152.252000", "144152.255000", "144152.258000", "144152.261000", "144152.264000", "144152.267000", "144152.270000", "144152.273000", "144152.275000", "144152.278000", "144152.281000", "144152.284000", "144152.287000", "144152.290000", "144152.293000", "144152.296000", "144152.299000", "144152.302000", "144152.305000", "144152.308000", "144152.310000", "144232.222000", "144232.225000", "144232.228000", "144232.231000", "144232.234000", "144232.236000", "144232.239000", "144232.242000", "144232.245000", "144232.248000", "144232.251000", "144232.254000", "144232.257000", "144232.259000", "144232.263000", "144232.265000", "144232.268000", "144232.271000", "144232.274000", "144232.277000", "144232.280000", "144232.283000", "144232.286000", "144232.289000", "144232.291000", "144232.294000", "144232.297000", "144232.300000", "144232.303000", "144232.306000", "144232.309000", "144232.312000", "144236.053000", "144236.058000", "144236.061000"],
      "InstanceNumber": [1, 2, 3, 4, 5, 6, 7, 8, 9, 10, 11, 12, 13, 14, 15, 16, 17, 18, 19, 20, 21, 22, 23, 24, 25, 26, 27, 28, 29, 30, 31, 32, 33, 34, 35, 36, 37, 38, 39, 40, 41, 42, 43, 44, 45, 46, 47, 48, 49, 50, 51, 52, 53, 54, 55, 56, 57, 58, 59, 60, 61, 62, 63, 64, 65, 66, 67, 68, 69, 70, 71, 72, 73, 74, 75, 76, 77, 78, 79, 80, 81, 82, 83, 84, 85, 86, 87, 88, 89, 90, 91, 92, 93, 94, 95, 96, 97, 98, 99, 100, 101, 102, 103, 104, 105, 106, 107, 108, 109, 110, 111, 112, 113, 114, 115, 116, 117, 118, 119, 120, 121, 122, 123, 124, 125, 126, 127, 128, 129, 130, 131, 132, 133, 134, 135, 136, 137, 138, 139, 140, 141, 142, 143, 144, 145, 146, 147, 148, 149, 150, 151, 152, 153, 154, 155, 156, 157, 158, 159, 160, 161, 162, 163, 164, 165, 166, 167, 168, 169, 170, 171, 172, 173, 174, 175, 176, 177, 178, 179, 180, 181, 182, 183, 184, 185, 186, 187, 188, 189, 190, 191, 192, 193, 194, 195, 196, 197, 198, 199, 200, 201, 202, 203, 204, 205, 206, 207, 208, 209, 210, 211, 212, 213, 214, 215, 216, 217, 218, 219, 220, 221, 222, 223, 224, 225, 226, 227, 228, 229, 230, 231, 232, 233, 234, 235, 236, 237, 238, 239, 240, 241, 242, 243, 244, 245, 246, 247, 248, 249, 250, 251, 252, 253, 254, 255, 256, 257, 258, 259, 260, 261, 262, 263, 264, 265, 266, 267, 268, 269, 270, 271, 272, 273, 274, 275, 276, 277, 278, 279, 280, 281, 282, 283, 284, 285, 286, 287, 288, 289, 290, 291, 292, 293, 294, 295, 296, 297, 298, 299, 300, 301, 302, 303, 304, 305, 306, 307, 308, 309, 310, 311, 312, 313, 314, 315, 316, 317, 318, 319, 320, 321, 322, 323, 324, 325, 326, 327, 328, 329, 330, 331, 332, 333, 334, 335, 336, 337, 338, 339, 340, 341, 342, 343, 344, 345, 346, 347, 348, 349, 350, 351, 352, 353, 354, 355, 356, 357, 358, 359, 360, 361, 362, 363, 364, 365, 366, 367, 368, 369, 370, 371, 372, 373],
