{
  "AcquisitionMatrixPE": 108,
  "AcquisitionNumber": 1,
  "AcquisitionTime": "15:32:58.742500",
  "BandwidthPerPixelPhaseEncode": 15.964,
  "BaseResolution": 108,
  "BodyPartExamined": "BRAIN",
  "ConsistencyInfo": "N4_VE11C_LATEST_20160120",
  "ConversionSoftware": "dcm2niix",
  "ConversionSoftwareVersion": "v1.0.20180622 GCC6.3.0",
  "DerivedVendorReportedEchoSpacing": 0.000580009,
  "DeviceSerialNumber": "66054",
  "DwellTime": 2.1e-06,
  "EchoTime": 0.031,
  "EchoTrainLength": 95,
  "EffectiveEchoSpacing": 0.000580009,
  "FlipAngle": 64,
  "ImageOrientationPatientDICOM": [0.997528, 0.0653342, -0.0258608, -0.0697539, 0.876388, -0.476528],
  "ImageType": [
    "ORIGINAL",
    "PRIMARY",
    "M",
    "ND",
    "MOSAIC"
],
  "InPlanePhaseEncodingDirectionDICOM": "COL",
  "InstitutionAddress": "Chemin_des_Mines_9_Geneve_District_CH_1211",
  "InstitutionName": "Fondation_Campus_Biotech_Geneva",
  "InstitutionalDepartmentName": "Department",
  "MRAcquisitionType": "2D",
  "MagneticFieldStrength": 3,
  "Manufacturer": "Siemens",
  "ManufacturersModelName": "Prisma",
  "Modality": "MR",
  "MultibandAccelerationFactor": 4,
  "PartialFourier": 0.875,
  "PatientPosition": "HFS",
  "PercentPhaseFOV": 100,
  "PhaseEncodingDirection": "j-",
  "PhaseEncodingSteps": 95,
  "PhaseResolution": 1,
  "PixelBandwidth": 2205,
  "ProcedureStepDescription": "J.DRM_Michael",
  "ProtocolName": "Rest_bold_s4_TR1.28",
  "PulseSequenceDetails": "%SiemensSeq%_ep2d_bold",
  "ReceiveCoilActiveElements": "HC1-7;NC1,2",
  "ReceiveCoilName": "HeadNeck_64",
  "ReconMatrixPE": 108,
  "RepetitionTime": 1.28,
  "SAR": 0.0681355,
  "ScanOptions": "PFP_FS",
  "ScanningSequence": "EP",
  "SequenceName": "_epfid2d1_108",
  "SequenceVariant": "SK",
  "SeriesDescription": "Rest_bold_s4_TR1.28",
  "SeriesNumber": 9,
  "ShimSetting": [-1274, -11686, 6452, 596, 163, -271, -11, 25],
  "SliceThickness": 2,
  "SliceTiming": [0.945, 0, 0.63, 0.0775, 0.7075, 0.1575, 0.7875, 0.235, 0.865, 0.3925, 1.0225, 0.4725, 1.1025, 0.55, 1.18, 0.315, 0.945, 0, 0.63, 0.0775, 0.7075, 0.1575, 0.7875, 0.235, 0.865, 0.3925, 1.0225, 0.4725, 1.1025, 0.55, 1.18, 0.315, 0.945, 0, 0.63, 0.0775, 0.7075, 0.1575, 0.7875, 0.235, 0.865, 0.3925, 1.0225, 0.4725, 1.1025, 0.55, 1.18, 0.315, 0.945, 0, 0.63, 0.0775, 0.7075, 0.1575, 0.7875, 0.235, 0.865, 0.3925, 1.0225, 0.4725, 1.1025, 0.55, 1.18, 0.315],
  "SoftwareVersions": "syngo_MR_E11",
  "SpacingBetweenSlices": 2,
  "StationName": "AWP66054",
  "TaskName": "rest",
  "TotalReadoutTime": 0.0620609,
  "TxRefAmp": 250.242,
  "dcmmeta_affine": [
    [-1.9858201742172241, -0.13886196911334991, 0.016938889399170876, 113.51445770263672],
    [-0.13006345927715302, 1.74466073513031, -0.9543081521987915, -57.41999435424805],
    [-0.051482249051332474, 0.9486438035964966, 1.7575576305389404, -93.56219482421875],
    [0.0, 0.0, 0.0, 1.0]
],
  "dcmmeta_reorient_transform": [
    [0.0, -1.0, 0.0, 107.0],
    [1.0, 0.0, 0.0, 0.0],
    [0.0, 0.0, 1.0, 0.0],
    [0.0, 0.0, 0.0, 1.0]
],
  "dcmmeta_shape": [108, 108, 64, 250],
  "dcmmeta_slice_dim": 2,
  "dcmmeta_version": 0.6,
  "global": {
    "const": {
      "AccessionNumber": "",
      "AcquisitionMatrix": [108, 0, 0, 108],
      "AngioFlag": "N",
      "BitsAllocated": 16,
      "BitsStored": 12,
      "BodyPartExamined": "BRAIN",
      "Columns": 864,
      "EchoNumbers": 1,
      "EchoTime": 31.0,
      "EchoTrainLength": 95,
      "FlipAngle": 64.0,
      "HighBit": 11,
      "ImageOrientationPatient": [0.99752827477983, 0.06533419797487, -0.0258608505229, -0.0697539211808, 0.87638771632237, -0.4765280276743],
      "ImagePositionPatient": [-796.80643909926, -837.9044602898, 385.99032548377],
      "ImageType": [
        "ORIGINAL",
        "PRIMARY",
        "M",
        "ND",
        "MOSAIC"
],
      "ImagedNucleus": "1H",
      "ImagingFrequency": 123.257413,
      "InPlanePhaseEncodingDirection": "COL",
      "MRAcquisitionType": "2D",
      "MagneticFieldStrength": 3.0,
      "Manufacturer": "SIEMENS",
      "ManufacturerModelName": "Prisma",
      "Modality": "MR",
      "NumberOfAverages": 1.0,
      "NumberOfPhaseEncodingSteps": 95,
      "PercentPhaseFieldOfView": 100.0,
      "PercentSampling": 100.0,
      "PerformedProcedureStepStartTime": "145221.335000",
      "PhotometricInterpretation": "MONOCHROME2",
      "PixelBandwidth": 2205.0,
      "PixelRepresentation": 0,
      "PixelSpacing": [1.990740776062, 1.990740776062],
      "PositionReferenceIndicator": "",
      "ProtocolName": "Rest_bold_s4_TR1.28",
      "RepetitionTime": 1280.0,
      "Rows": 864,
      "SAR": 0.06813546102719,
      "SamplesPerPixel": 1,
      "ScanOptions": [
        "PFP",
        "FS"
],
      "ScanningSequence": "EP",
      "SequenceName": "*epfid2d1_108",
      "SequenceVariant": "SK",
      "SeriesDescription": "Rest_bold_s4_TR1.28",
      "SeriesNumber": 9,
      "SeriesTime": "153331.815000",
      "SliceLocation": -53.860889572088,
      "SliceThickness": 2.0,
      "SmallestImagePixelValue": 0,
      "SoftwareVersions": "syngo MR E11",
      "SpacingBetweenSlices": 2.0000000033219,
      "SpecificCharacterSet": "ISO_IR 100",
      "StudyID": "1",
      "StudyTime": "145221.266000",
      "TransmitCoilName": "Body",
      "VariableFlipAngleFlag": "N",
      "WindowCenterWidthExplanation": "Algo1",
      "dBdt": 0.0},
    "slices": {}
  },
  "time": {
    "samples": {
      "AcquisitionNumber": [1, 2, 3, 4, 5, 6, 7, 8, 9, 10, 11, 12, 13, 14, 15, 16, 17, 18, 19, 20, 21, 22, 23, 24, 25, 26, 27, 28, 29, 30, 31, 32, 33, 34, 35, 36, 37, 38, 39, 40, 41, 42, 43, 44, 45, 46, 47, 48, 49, 50, 51, 52, 53, 54, 55, 56, 57, 58, 59, 60, 61, 62, 63, 64, 65, 66, 67, 68, 69, 70, 71, 72, 73, 74, 75, 76, 77, 78, 79, 80, 81, 82, 83, 84, 85, 86, 87, 88, 89, 90, 91, 92, 93, 94, 95, 96, 97, 98, 99, 100, 101, 102, 103, 104, 105, 106, 107, 108, 109, 110, 111, 112, 113, 114, 115, 116, 117, 118, 119, 120, 121, 122, 123, 124, 125, 126, 127, 128, 129, 130, 131, 132, 133, 134, 135, 136, 137, 138, 139, 140, 141, 142, 143, 144, 145, 146, 147, 148, 149, 150, 151, 152, 153, 154, 155, 156, 157, 158, 159, 160, 161, 162, 163, 164, 165, 166, 167, 168, 169, 170, 171, 172, 173, 174, 175, 176, 177, 178, 179, 180, 181, 182, 183, 184, 185, 186, 187, 188, 189, 190, 191, 192, 193, 194, 195, 196, 197, 198, 199, 200, 201, 202, 203, 204, 205, 206, 207, 208, 209, 210, 211, 212, 213, 214, 215, 216, 217, 218, 219, 220, 221, 222, 223, 224, 225, 226, 227, 228, 229, 230, 231, 232, 233, 234, 235, 236, 237, 238, 239, 240, 241, 242, 243, 244, 245, 246, 247, 248, 249, 250],
      "AcquisitionTime": ["153258.742500", "153300.022500", "153301.302500", "153302.582500", "153303.862500", "153305.142500", "153306.422500", "153307.702500", "153308.982500", "153310.262500", "153311.542500", "153312.822500", "153314.102500", "153315.382500", "153316.662500", "153317.942500", "153319.222500", "153320.502500", "153321.782500", "153323.062500", "153324.342500", "153325.622500", "153326.902500", "153328.182500", "153329.462500", "153330.742500", "153332.022500", "153333.302500", "153334.582500", "153335.862500", "153337.142500", "153338.422500", "153339.702500", "153340.982500", "153342.262500", "153343.542500", "153344.822500", "153346.102500", "153347.382500", "153348.662500", "153349.942500", "153351.222500", "153352.502500", "153353.782500", "153355.062500", "153356.342500", "153357.622500", "153358.902500", "153400.182500", "153401.462500", "153402.742500", "153404.022500", "153405.302500", "153406.582500", "153407.862500", "153409.142500", "153410.422500", "153411.702500", "153412.982500", "153414.262500", "153415.542500", "153416.822500", "153418.102500", "153419.382500", "153420.662500", "153421.942500", "153423.222500", "153424.502500", "153425.782500", "153427.062500", "153428.342500", "153429.622500", "153430.902500", "153432.182500", "153433.462500", "153434.742500", "153436.022500", "153437.302500", "153438.582500", "153439.862500", "153441.142500", "153442.422500", "153443.702500", "153444.982500", "153446.262500", "153447.542500", "153448.822500", "153450.102500", "153451.382500", "153452.662500", "153453.942500", "153455.222500", "153456.502500", "153457.782500", "153459.062500", "153500.342500", "153501.622500", "153502.902500", "153504.182500", "153505.462500", "153506.742500", "153508.022500", "153509.302500", "153510.582500", "153511.862500", "153513.142500", "153514.422500", "153515.702500", "153516.982500", "153518.262500", "153519.542500", "153520.822500", "153522.102500", "153523.382500", "153524.662500", "153525.942500", "153527.222500", "153528.502500", "153529.782500", "153531.062500", "153532.342500", "153533.622500", "153534.902500", "153536.182500", "153537.462500", "153538.742500", "153540.022500", "153541.302500", "153542.582500", "153543.862500", "153545.142500", "153546.422500", "153547.702500", "153548.982500", "153550.262500", "153551.542500", "153552.822500", "153554.102500", "153555.382500", "153556.662500", "153557.942500", "153559.222500", "153600.502500", "153601.782500", "153603.062500", "153604.342500", "153605.622500", "153606.902500", "153608.182500", "153609.462500", "153610.742500", "153612.022500", "153613.302500", "153614.582500", "153615.862500", "153617.142500", "153618.422500", "153619.702500", "153620.982500", "153622.262500", "153623.542500", "153624.822500", "153626.102500", "153627.382500", "153628.662500", "153629.942500", "153631.222500", "153632.502500", "153633.782500", "153635.062500", "153636.342500", "153637.622500", "153638.902500", "153640.182500", "153641.462500", "153642.742500", "153644.022500", "153645.302500", "153646.582500", "153647.862500", "153649.142500", "153650.422500", "153651.702500", "153652.982500", "153654.262500", "153655.542500", "153656.822500", "153658.102500", "153659.382500", "153700.662500", "153701.942500", "153703.222500", "153704.502500", "153705.782500", "153707.062500", "153708.342500", "153709.622500", "153710.902500", "153712.182500", "153713.462500", "153714.742500", "153716.022500", "153717.302500", "153718.582500", "153719.862500", "153721.142500", "153722.422500", "153723.702500", "153724.982500", "153726.262500", "153727.542500", "153728.822500", "153730.102500", "153731.382500", "153732.662500", "153733.942500", "153735.222500", "153736.502500", "153737.782500", "153739.062500", "153740.342500", "153741.622500", "153742.902500", "153744.182500", "153745.462500", "153746.742500", "153748.022500", "153749.302500", "153750.582500", "153751.862500", "153753.142500", "153754.422500", "153755.702500", "153756.982500", "153758.262500", "153759.542500", "153800.822500", "153802.102500", "153803.382500", "153804.662500", "153805.942500", "153807.222500", "153808.502500", "153809.782500", "153811.062500", "153812.342500", "153813.622500", "153814.902500", "153816.182500", "153817.462500"],
      "ContentTime": ["153331.819000", "153331.823000", "153331.826000", "153331.829000", "153331.832000", "153331.835000", "153331.838000", "153331.841000", "153331.844000", "153331.847000", "153331.850000", "153331.852000", "153331.857000", "153331.861000", "153331.863000", "153331.872000", "153331.875000", "153331.878000", "153331.881000", "153331.884000", "153331.887000", "153331.890000", "153331.893000", "153331.896000", "153331.899000", "153411.814000", "153411.818000", "153411.821000", "153411.824000", "153411.827000", "153411.830000", "153411.833000", "153411.836000", "153411.839000", "153411.842000", "153411.845000", "153411.848000", "153411.851000", "153411.854000", "153411.857000", "153411.860000", "153411.863000", "153411.866000", "153411.869000", "153411.872000", "153411.875000", "153411.878000", "153411.881000", "153411.884000", "153411.887000", "153411.890000", "153411.893000", "153411.896000", "153411.899000", "153411.902000", "153411.905000", "153451.815000", "153451.818000", "153451.821000", "153451.824000", "153451.827000", "153451.830000", "153451.833000", "153451.836000", "153451.839000", "153451.842000", "153451.845000", "153451.848000", "153451.851000", "153451.854000", "153451.857000", "153451.860000", "153451.863000", "153451.866000", "153451.869000", "153451.872000", "153451.886000", "153451.889000", "153451.892000", "153451.895000", "153451.898000", "153451.901000", "153451.904000", "153451.907000", "153451.910000", "153451.913000", "153451.916000", "153451.919000", "153511.815000", "153511.818000", "153511.821000", "153511.824000", "153511.827000", "153511.830000", "153511.833000", "153511.836000", "153511.839000", "153511.842000", "153511.845000", "153511.848000", "153511.851000", "153511.854000", "153511.857000", "153551.814000", "153551.817000", "153551.820000", "153551.823000", "153551.826000", "153551.829000", "153551.832000", "153551.835000", "153551.841000", "153551.844000", "153551.847000", "153551.850000", "153551.853000", "153551.856000", "153551.859000", "153551.862000", "153551.865000", "153551.868000", "153551.871000", "153551.874000", "153551.877000", "153551.880000", "153551.883000", "153551.886000", "153551.889000", "153551.892000", "153551.895000", "153551.898000", "153551.901000", "153551.904000", "153551.907000", "153551.910000", "153631.814000", "153631.817000", "153631.820000", "153631.823000", "153631.826000", "153631.829000", "153631.832000", "153631.835000", "153631.838000", "153631.841000", "153631.844000", "153631.847000", "153631.850000", "153631.853000", "153631.856000", "153631.859000", "153631.862000", "153631.865000", "153631.868000", "153631.871000", "153631.874000", "153631.877000", "153631.880000", "153631.883000", "153631.886000", "153631.889000", "153631.892000", "153631.895000", "153631.898000", "153631.901000", "153631.904000", "153711.815000", "153711.819000", "153711.822000", "153711.825000", "153711.828000", "153711.831000", "153711.835000", "153711.838000", "153711.840000", "153711.843000", "153711.847000", "153711.850000", "153711.853000", "153711.856000", "153711.859000", "153711.862000", "153711.865000", "153711.868000", "153711.871000", "153711.874000", "153711.877000", "153711.880000", "153711.883000", "153711.886000", "153711.889000", "153711.892000", "153711.895000", "153711.898000", "153711.901000", "153711.904000", "153711.907000", "153751.814000", "153751.817000", "153751.820000", "153751.823000", "153751.826000", "153751.829000", "153751.832000", "153751.836000", "153751.844000", "153751.848000", "153751.851000", "153751.854000", "153751.857000", "153751.860000", "153751.863000", "153751.866000", "153751.869000", "153751.872000", "153751.875000", "153751.878000", "153751.881000", "153751.884000", "153751.888000", "153751.890000", "153751.893000", "153751.897000", "153751.899000", "153751.902000", "153751.905000", "153751.908000", "153751.911000", "153818.901000", "153818.904000", "153818.909000", "153818.912000", "153818.915000", "153818.918000", "153818.922000", "153818.925000", "153818.928000", "153818.932000", "153818.944000", "153818.947000", "153818.952000", "153818.960000", "153818.969000", "153818.972000", "153818.975000", "153818.978000", "153818.982000", "153818.985000", "153818.988000", "153818.991000"],
      "InstanceCreationTime": ["153331.819000", "153331.823000", "153331.826000", "153331.829000", "153331.832000", "153331.835000", "153331.838000", "153331.841000", "153331.844000", "153331.847000", "153331.850000", "153331.852000", "153331.857000", "153331.861000", "153331.863000", "153331.872000", "153331.875000", "153331.878000", "153331.881000", "153331.884000", "153331.887000", "153331.890000", "153331.893000", "153331.896000", "153331.899000", "153411.814000", "153411.818000", "153411.821000", "153411.824000", "153411.827000", "153411.830000", "153411.833000", "153411.836000", "153411.839000", "153411.842000", "153411.845000", "153411.848000", "153411.851000", "153411.854000", "153411.857000", "153411.860000", "153411.863000", "153411.866000", "153411.869000", "153411.872000", "153411.875000", "153411.878000", "153411.881000", "153411.884000", "153411.887000", "153411.890000", "153411.893000", "153411.896000", "153411.899000", "153411.902000", "153411.905000", "153451.815000", "153451.818000", "153451.821000", "153451.824000", "153451.827000", "153451.830000", "153451.833000", "153451.836000", "153451.839000", "153451.842000", "153451.845000", "153451.848000", "153451.851000", "153451.854000", "153451.857000", "153451.860000", "153451.863000", "153451.866000", "153451.869000", "153451.872000", "153451.886000", "153451.889000", "153451.892000", "153451.895000", "153451.898000", "153451.901000", "153451.904000", "153451.907000", "153451.910000", "153451.913000", "153451.916000", "153451.919000", "153511.815000", "153511.818000", "153511.821000", "153511.824000", "153511.827000", "153511.830000", "153511.833000", "153511.836000", "153511.839000", "153511.842000", "153511.845000", "153511.848000", "153511.851000", "153511.854000", "153511.857000", "153551.814000", "153551.817000", "153551.820000", "153551.823000", "153551.826000", "153551.829000", "153551.832000", "153551.835000", "153551.841000", "153551.844000", "153551.847000", "153551.850000", "153551.853000", "153551.856000", "153551.859000", "153551.862000", "153551.865000", "153551.868000", "153551.871000", "153551.874000", "153551.877000", "153551.880000", "153551.883000", "153551.886000", "153551.889000", "153551.892000", "153551.895000", "153551.898000", "153551.901000", "153551.904000", "153551.907000", "153551.910000", "153631.814000", "153631.817000", "153631.820000", "153631.823000", "153631.826000", "153631.829000", "153631.832000", "153631.835000", "153631.838000", "153631.841000", "153631.844000", "153631.847000", "153631.850000", "153631.853000", "153631.856000", "153631.859000", "153631.862000", "153631.865000", "153631.868000", "153631.871000", "153631.874000", "153631.877000", "153631.880000", "153631.883000", "153631.886000", "153631.889000", "153631.892000", "153631.895000", "153631.898000", "153631.901000", "153631.904000", "153711.815000", "153711.819000", "153711.822000", "153711.825000", "153711.828000", "153711.831000", "153711.835000", "153711.838000", "153711.840000", "153711.843000", "153711.847000", "153711.850000", "153711.853000", "153711.856000", "153711.859000", "153711.862000", "153711.865000", "153711.868000", "153711.871000", "153711.874000", "153711.877000", "153711.880000", "153711.883000", "153711.886000", "153711.889000", "153711.892000", "153711.895000", "153711.898000", "153711.901000", "153711.904000", "153711.907000", "153751.814000", "153751.817000", "153751.820000", "153751.823000", "153751.826000", "153751.829000", "153751.832000", "153751.836000", "153751.844000", "153751.848000", "153751.851000", "153751.854000", "153751.857000", "153751.860000", "153751.863000", "153751.866000", "153751.869000", "153751.872000", "153751.875000", "153751.878000", "153751.881000", "153751.884000", "153751.888000", "153751.890000", "153751.893000", "153751.897000", "153751.899000", "153751.902000", "153751.905000", "153751.908000", "153751.911000", "153818.901000", "153818.904000", "153818.909000", "153818.912000", "153818.915000", "153818.918000", "153818.922000", "153818.925000", "153818.928000", "153818.932000", "153818.944000", "153818.947000", "153818.952000", "153818.960000", "153818.969000", "153818.972000", "153818.975000", "153818.978000", "153818.982000", "153818.985000", "153818.988000", "153818.991000"],
      "InstanceNumber": [1, 2, 3, 4, 5, 6, 7, 8, 9, 10, 11, 12, 13, 14, 15, 16, 17, 18, 19, 20, 21, 22, 23, 24, 25, 26, 27, 28, 29, 30, 31, 32, 33, 34, 35, 36, 37, 38, 39, 40, 41, 42, 43, 44, 45, 46, 47, 48, 49, 50, 51, 52, 53, 54, 55, 56, 57, 58, 59, 60, 61, 62, 63, 64, 65, 66, 67, 68, 69, 70, 71, 72, 73, 74, 75, 76, 77, 78, 79, 80, 81, 82, 83, 84, 85, 86, 87, 88, 89, 90, 91, 92, 93, 94, 95, 96, 97, 98, 99, 100, 101, 102, 103, 104, 105, 106, 107, 108, 109, 110, 111, 112, 113, 114, 115, 116, 117, 118, 119, 120, 121, 122, 123, 124, 125, 126, 127, 128, 129, 130, 131, 132, 133, 134, 135, 136, 137, 138, 139, 140, 141, 142, 143, 144, 145, 146, 147, 148, 149, 150, 151, 152, 153, 154, 155, 156, 157, 158, 159, 160, 161, 162, 163, 164, 165, 166, 167, 168, 169, 170, 171, 172, 173, 174, 175, 176, 177, 178, 179, 180, 181, 182, 183, 184, 185, 186, 187, 188, 189, 190, 191, 192, 193, 194, 195, 196, 197, 198, 199, 200, 201, 202, 203, 204, 205, 206, 207, 208, 209, 210, 211, 212, 213, 214, 215, 216, 217, 218, 219, 220, 221, 222, 223, 224, 225, 226, 227, 228, 229, 230, 231, 232, 233, 234, 235, 236, 237, 238, 239, 240, 241, 242, 243, 244, 245, 246, 247, 248, 249, 250],
      "LargestImagePixelValue": [2518, 2414, 2364, 2381, 2420, 2342, 2338, 2371, 2372, 2335, 2341, 2479, 2341, 2367, 2335, 2734, 2458, 2360, 2342, 2337, 2427, 2331, 2377, 2414, 2357, 2408, 2358, 2349, 2344, 2376, 2363, 2392, 2373, 2356, 2360, 2389, 2373, 2366, 2363, 2359, 2368, 2355, 2987, 2538, 2588, 2520, 2380, 2367, 2368, 2374, 2391, 2400, 2393, 2392, 2388, 2390, 2383, 2421, 2397, 2364, 2460, 2368, 2428, 2406, 2505, 2538, 2490, 2433, 2414, 2400, 2628, 2675, 2385, 2374, 2442, 2659, 2398, 2471, 2414, 2395, 2421, 2409, 2409, 2438, 2411, 2444, 2423, 2425, 2441, 2425, 2416, 2404, 2448, 2434, 2447, 2460, 2465, 2455, 2438, 2431, 2450, 2427, 2447, 2487, 2476, 2692, 2660, 2468, 2458, 2468, 2498, 2476, 2477, 2486, 2459, 2458, 2456, 2464, 2448, 2446, 2467, 2441, 2433, 2457, 2462, 2450, 2480, 2473, 2468, 2463, 2464, 2937, 2469, 2620, 2470, 2465, 2459, 2450, 2466, 2452, 2583, 2452, 2463, 2468, 2468, 2456, 2464, 2478, 2500, 2507, 2482, 2487, 2467, 2464, 2478, 2476, 2470, 2472, 2479, 2477, 2471, 2498, 2476, 2451, 2794, 2497, 2638, 2471, 2464, 2483, 2465, 2483, 2476, 2487, 2833, 2500, 2482, 2479, 2456, 2561, 2463, 2484, 2484, 2476, 2485, 2462, 2461, 2468, 2469, 2470, 2480, 2456, 2452, 2471, 2707, 2462, 2476, 2463, 2441, 2436, 2438, 2441, 2441, 2489, 2470, 2456, 2491, 2539, 2481, 2467, 2686, 2440, 2436, 2409, 2453, 2447, 2431, 2449, 2468, 2430, 2938, 2441, 2431, 2677, 2447, 2429, 2433, 2419, 2400, 2469, 2558, 2419, 2432, 2455, 2402, 2454, 2435, 2417, 2477, 2420, 2417, 2406, 2449, 2429, 2486, 2548, 2451, 2462, 2425, 2397],
      "WindowCenter": [631.0, 627.0, 627.0, 627.0, 627.0, 626.0, 626.0, 626.0, 625.0, 625.0, 625.0, 626.0, 625.0, 626.0, 626.0, 630.0, 628.0, 627.0, 627.0, 627.0, 627.0, 627.0, 627.0, 627.0, 626.0, 626.0, 625.0, 625.0, 626.0, 626.0, 626.0, 626.0, 626.0, 625.0, 626.0, 627.0, 626.0, 627.0, 627.0, 627.0, 627.0, 627.0, 631.0, 628.0, 629.0, 628.0, 626.0, 627.0, 626.0, 627.0, 627.0, 627.0, 627.0, 628.0, 628.0, 628.0, 627.0, 628.0, 627.0, 627.0, 627.0, 627.0, 627.0, 628.0, 628.0, 628.0, 628.0, 628.0, 627.0, 627.0, 629.0, 630.0, 629.0, 629.0, 628.0, 629.0, 626.0, 627.0, 627.0, 627.0, 627.0, 627.0, 626.0, 626.0, 625.0, 625.0, 625.0, 626.0, 626.0, 626.0, 626.0, 626.0, 626.0, 626.0, 626.0, 626.0, 627.0, 627.0, 627.0, 627.0, 627.0, 625.0, 626.0, 627.0, 627.0, 629.0, 629.0, 628.0, 628.0, 628.0, 627.0, 627.0, 627.0, 628.0, 627.0, 628.0, 627.0, 627.0, 627.0, 628.0, 628.0, 627.0, 627.0, 627.0, 627.0, 627.0, 627.0, 627.0, 627.0, 628.0, 627.0, 630.0, 627.0, 628.0, 627.0, 627.0, 626.0, 627.0, 627.0, 628.0, 629.0, 629.0, 629.0, 628.0, 629.0, 628.0, 627.0, 628.0, 627.0, 627.0, 627.0, 627.0, 627.0, 627.0, 627.0, 626.0, 627.0, 627.0, 627.0, 626.0, 626.0, 626.0, 626.0, 626.0, 629.0, 627.0, 630.0, 629.0, 628.0, 628.0, 628.0, 628.0, 628.0, 628.0, 631.0, 627.0, 627.0, 627.0, 627.0, 629.0, 628.0, 629.0, 629.0, 628.0, 629.0, 628.0, 629.0, 629.0, 629.0, 628.0, 629.0, 629.0, 629.0, 629.0, 629.0, 627.0, 628.0, 628.0, 629.0, 629.0, 628.0, 627.0, 626.0, 626.0, 626.0, 627.0, 626.0, 627.0, 627.0, 627.0, 629.0, 627.0, 627.0, 627.0, 627.0, 626.0, 627.0, 627.0, 628.0, 627.0, 631.0, 627.0, 627.0, 628.0, 627.0, 627.0, 627.0, 627.0, 627.0, 628.0, 628.0, 627.0, 627.0, 627.0, 627.0, 628.0, 627.0, 627.0, 628.0, 627.0, 628.0, 627.0, 627.0, 627.0, 627.0, 628.0, 628.0, 628.0, 629.0, 628.0],
      "WindowWidth": [1328.0, 1320.0, 1318.0, 1319.0, 1318.0, 1317.0, 1316.0, 1316.0, 1314.0, 1314.0, 1314.0, 1315.0, 1315.0, 1315.0, 1316.0, 1323.0, 1320.0, 1317.0, 1317.0, 1317.0, 1319.0, 1319.0, 1318.0, 1318.0, 1315.0, 1315.0, 1314.0, 1315.0, 1316.0, 1316.0, 1316.0, 1316.0, 1315.0, 1315.0, 1316.0, 1317.0, 1317.0, 1319.0, 1319.0, 1318.0, 1319.0, 1319.0, 1325.0, 1320.0, 1321.0, 1319.0, 1316.0, 1318.0, 1317.0, 1317.0, 1318.0, 1318.0, 1318.0, 1320.0, 1319.0, 1320.0, 1319.0, 1320.0, 1319.0, 1318.0, 1319.0, 1318.0, 1318.0, 1319.0, 1320.0, 1321.0, 1321.0, 1319.0, 1317.0, 1318.0, 1322.0, 1324.0, 1322.0, 1322.0, 1321.0, 1322.0, 1317.0, 1317.0, 1318.0, 1319.0, 1318.0, 1318.0, 1316.0, 1315.0, 1314.0, 1314.0, 1314.0, 1315.0, 1316.0, 1316.0, 1316.0, 1316.0, 1316.0, 1316.0, 1317.0, 1317.0, 1319.0, 1318.0, 1317.0, 1318.0, 1317.0, 1315.0, 1315.0, 1317.0, 1317.0, 1321.0, 1323.0, 1320.0, 1321.0, 1319.0, 1319.0, 1318.0, 1319.0, 1319.0, 1319.0, 1319.0, 1318.0, 1318.0, 1318.0, 1320.0, 1320.0, 1319.0, 1318.0, 1318.0, 1317.0, 1318.0, 1319.0, 1318.0, 1318.0, 1319.0, 1318.0, 1324.0, 1318.0, 1319.0, 1318.0, 1317.0, 1317.0, 1317.0, 1318.0, 1320.0, 1323.0, 1322.0, 1322.0, 1321.0, 1322.0, 1320.0, 1319.0, 1319.0, 1318.0, 1317.0, 1319.0, 1319.0, 1319.0, 1318.0, 1317.0, 1316.0, 1318.0, 1319.0, 1317.0, 1316.0, 1316.0, 1315.0, 1315.0, 1315.0, 1321.0, 1319.0, 1323.0, 1322.0, 1320.0, 1320.0, 1320.0, 1320.0, 1319.0, 1320.0, 1324.0, 1319.0, 1317.0, 1318.0, 1318.0, 1321.0, 1321.0, 1322.0, 1321.0, 1321.0, 1321.0, 1321.0, 1322.0, 1322.0, 1321.0, 1321.0, 1322.0, 1321.0, 1322.0, 1321.0, 1322.0, 1319.0, 1320.0, 1321.0, 1323.0, 1322.0, 1320.0, 1318.0, 1317.0, 1316.0, 1316.0, 1317.0, 1316.0, 1318.0, 1317.0, 1317.0, 1321.0, 1319.0, 1318.0, 1318.0, 1317.0, 1317.0, 1318.0, 1318.0, 1319.0, 1319.0, 1325.0, 1319.0, 1318.0, 1320.0, 1318.0, 1318.0, 1318.0, 1319.0, 1318.0, 1319.0, 1321.0, 1318.0, 1318.0, 1317.0, 1317.0, 1319.0, 1318.0, 1319.0, 1320.0, 1319.0, 1320.0, 1318.0, 1318.0, 1319.0, 1319.0, 1320.0, 1321.0, 1321.0, 1322.0, 1320.0]
    },
    "slices": {}
  }
}