{
  "AcquisitionMatrixPE": 108,
  "AcquisitionNumber": 1,
  "AcquisitionTime": "15:41:32.442500",
  "BandwidthPerPixelPhaseEncode": 15.964,
  "BaseResolution": 108,
  "BodyPartExamined": "BRAIN",
  "ConsistencyInfo": "N4_VE11C_LATEST_20160120",
  "ConversionSoftware": "dcm2niix",
  "ConversionSoftwareVersion": "v1.0.20180622 GCC6.3.0",
  "DerivedVendorReportedEchoSpacing": 0.000580009,
  "DeviceSerialNumber": "66054",
  "DwellTime": 2.1e-06,
  "EchoTime": 0.031,
  "EchoTrainLength": 95,
  "EffectiveEchoSpacing": 0.000580009,
  "FlipAngle": 64,
  "ImageOrientationPatientDICOM": [0.995096, -0.0959071, -0.0242171, 0.0853098, 0.956009, -0.280657],
  "ImageType": [
    "ORIGINAL",
    "PRIMARY",
    "M",
    "ND",
    "MOSAIC"
],
  "InPlanePhaseEncodingDirectionDICOM": "COL",
  "InstitutionAddress": "Chemin_des_Mines_9_Geneve_District_CH_1211",
  "InstitutionName": "Fondation_Campus_Biotech_Geneva",
  "InstitutionalDepartmentName": "Department",
  "MRAcquisitionType": "2D",
  "MagneticFieldStrength": 3,
  "Manufacturer": "Siemens",
  "ManufacturersModelName": "Prisma",
  "Modality": "MR",
  "MultibandAccelerationFactor": 4,
  "PartialFourier": 0.875,
  "PatientPosition": "HFS",
  "PercentPhaseFOV": 100,
  "PhaseEncodingDirection": "j-",
  "PhaseEncodingSteps": 95,
  "PhaseResolution": 1,
  "PixelBandwidth": 2205,
  "ProcedureStepDescription": "J.DRM_Michael",
  "ProtocolName": "Run5_bold_s4_TR1.28",
  "PulseSequenceDetails": "%SiemensSeq%_ep2d_bold",
  "ReceiveCoilActiveElements": "HC1-7;NC1,2",
  "ReceiveCoilName": "HeadNeck_64",
  "ReconMatrixPE": 108,
  "RepetitionTime": 1.28,
  "SAR": 0.0700036,
  "ScanOptions": "PFP_FS",
  "ScanningSequence": "EP",
  "SequenceName": "_epfid2d1_108",
  "SequenceVariant": "SK",
  "SeriesDescription": "Run5_bold_s4_TR1.28",
  "SeriesNumber": 12,
  "ShimSetting": [-1247, -11662, 6430, 611, 173, 91, 52, 21],
  "SliceThickness": 2,
  "SliceTiming": [0.945, 0, 0.63, 0.08, 0.71, 0.1575, 0.7875, 0.2375, 0.8675, 0.395, 1.025, 0.4725, 1.1025, 0.5525, 1.18, 0.315, 0.945, 0, 0.63, 0.08, 0.71, 0.1575, 0.7875, 0.2375, 0.8675, 0.395, 1.025, 0.4725, 1.1025, 0.5525, 1.18, 0.315, 0.945, 0, 0.63, 0.08, 0.71, 0.1575, 0.7875, 0.2375, 0.8675, 0.395, 1.025, 0.4725, 1.1025, 0.5525, 1.18, 0.315, 0.945, 0, 0.63, 0.08, 0.71, 0.1575, 0.7875, 0.2375, 0.8675, 0.395, 1.025, 0.4725, 1.1025, 0.5525, 1.18, 0.315],
  "SoftwareVersions": "syngo_MR_E11",
  "SpacingBetweenSlices": 2,
  "StationName": "AWP66054",
  "TaskName": "main",
  "TotalReadoutTime": 0.0620609,
  "TxRefAmp": 260.639,
  "dcmmeta_affine": [
    [-1.9809775352478027, 0.16982965171337128, -0.1001376062631607, 98.7686996459961],
    [0.1909262090921402, 1.903166651725769, -0.554429829120636, -91.8202133178711],
    [-0.048209961503744125, 0.5587159395217896, 1.919005036354065, -82.48870086669922],
    [0.0, 0.0, 0.0, 1.0]
],
  "dcmmeta_reorient_transform": [
    [0.0, -1.0, 0.0, 107.0],
    [1.0, 0.0, 0.0, 0.0],
    [0.0, 0.0, 1.0, 0.0],
    [0.0, 0.0, 0.0, 1.0]
],
  "dcmmeta_shape": [108, 108, 64, 373],
  "dcmmeta_slice_dim": 2,
  "dcmmeta_version": 0.6,
  "global": {
    "const": {
      "AccessionNumber": "",
      "AcquisitionMatrix": [108, 0, 0, 108],
      "AngioFlag": "N",
      "BitsAllocated": 16,
      "BitsStored": 12,
      "BodyPartExamined": "BRAIN",
      "Columns": 864,
      "EchoNumbers": 1,
      "EchoTime": 31.0,
      "EchoTrainLength": 95,
      "FlipAngle": 64.0,
      "HighBit": 11,
      "ImageOrientationPatient": [0.99509565211105, -0.0959071187416, -0.0242170957044, 0.08530977856609, 0.95600926851978, -0.2806573002529],
      "ImagePositionPatient": [-929.9455756367, -759.04549361666, 206.71189026566],
      "ImageType": [
        "ORIGINAL",
        "PRIMARY",
        "M",
        "ND",
        "MOSAIC"
],
      "ImagedNucleus": "1H",
      "ImagingFrequency": 123.257457,
      "InPlanePhaseEncodingDirection": "COL",
      "MRAcquisitionType": "2D",
      "MagneticFieldStrength": 3.0,
      "Manufacturer": "SIEMENS",
      "ManufacturerModelName": "Prisma",
      "Modality": "MR",
      "NumberOfAverages": 1.0,
      "NumberOfPhaseEncodingSteps": 95,
      "PercentPhaseFieldOfView": 100.0,
      "PercentSampling": 100.0,
      "PerformedProcedureStepStartTime": "142751.376000",
      "PhotometricInterpretation": "MONOCHROME2",
      "PixelBandwidth": 2205.0,
      "PixelRepresentation": 0,
      "PixelSpacing": [1.990740776062, 1.990740776062],
      "PositionReferenceIndicator": "",
      "ProtocolName": "Run5_bold_s4_TR1.28",
      "RepetitionTime": 1280.0,
      "Rows": 864,
      "SAR": 0.07000356230149,
      "SamplesPerPixel": 1,
      "ScanOptions": [
        "PFP",
        "FS"
],
      "ScanningSequence": "EP",
      "SequenceName": "*epfid2d1_108",
      "SequenceVariant": "SK",
      "SeriesDescription": "Run5_bold_s4_TR1.28",
      "SeriesNumber": 12,
      "SeriesTime": "154209.856000",
      "SliceLocation": -58.639412018848,
      "SliceThickness": 2.0,
      "SmallestImagePixelValue": 0,
      "SoftwareVersions": "syngo MR E11",
      "SpacingBetweenSlices": 2.0000000508259,
      "SpecificCharacterSet": "ISO_IR 100",
      "StudyID": "1",
      "StudyTime": "142751.272000",
      "TransmitCoilName": "Body",
      "VariableFlipAngleFlag": "N",
      "WindowCenterWidthExplanation": "Algo1",
      "dBdt": 0.0},
    "slices": {}
  },
  "time": {
    "samples": {
      "AcquisitionNumber": [1, 2, 3, 4, 5, 6, 7, 8, 9, 10, 11, 12, 13, 14, 15, 16, 17, 18, 19, 20, 21, 22, 23, 24, 25, 26, 27, 28, 29, 30, 31, 32, 33, 34, 35, 36, 37, 38, 39, 40, 41, 42, 43, 44, 45, 46, 47, 48, 49, 50, 51, 52, 53, 54, 55, 56, 57, 58, 59, 60, 61, 62, 63, 64, 65, 66, 67, 68, 69, 70, 71, 72, 73, 74, 75, 76, 77, 78, 79, 80, 81, 82, 83, 84, 85, 86, 87, 88, 89, 90, 91, 92, 93, 94, 95, 96, 97, 98, 99, 100, 101, 102, 103, 104, 105, 106, 107, 108, 109, 110, 111, 112, 113, 114, 115, 116, 117, 118, 119, 120, 121, 122, 123, 124, 125, 126, 127, 128, 129, 130, 131, 132, 133, 134, 135, 136, 137, 138, 139, 140, 141, 142, 143, 144, 145, 146, 147, 148, 149, 150, 151, 152, 153, 154, 155, 156, 157, 158, 159, 160, 161, 162, 163, 164, 165, 166, 167, 168, 169, 170, 171, 172, 173, 174, 175, 176, 177, 178, 179, 180, 181, 182, 183, 184, 185, 186, 187, 188, 189, 190, 191, 192, 193, 194, 195, 196, 197, 198, 199, 200, 201, 202, 203, 204, 205, 206, 207, 208, 209, 210, 211, 212, 213, 214, 215, 216, 217, 218, 219, 220, 221, 222, 223, 224, 225, 226, 227, 228, 229, 230, 231, 232, 233, 234, 235, 236, 237, 238, 239, 240, 241, 242, 243, 244, 245, 246, 247, 248, 249, 250, 251, 252, 253, 254, 255, 256, 257, 258, 259, 260, 261, 262, 263, 264, 265, 266, 267, 268, 269, 270, 271, 272, 273, 274, 275, 276, 277, 278, 279, 280, 281, 282, 283, 284, 285, 286, 287, 288, 289, 290, 291, 292, 293, 294, 295, 296, 297, 298, 299, 300, 301, 302, 303, 304, 305, 306, 307, 308, 309, 310, 311, 312, 313, 314, 315, 316, 317, 318, 319, 320, 321, 322, 323, 324, 325, 326, 327, 328, 329, 330, 331, 332, 333, 334, 335, 336, 337, 338, 339, 340, 341, 342, 343, 344, 345, 346, 347, 348, 349, 350, 351, 352, 353, 354, 355, 356, 357, 358, 359, 360, 361, 362, 363, 364, 365, 366, 367, 368, 369, 370, 371, 372, 373],
      "AcquisitionTime": ["154132.442500", "154133.722500", "154135.002500", "154136.282500", "154137.562500", "154138.842500", "154140.122500", "154141.402500", "154142.682500", "154143.962500", "154145.242500", "154146.522500", "154147.802500", "154149.082500", "154150.362500", "154151.642500", "154152.922500", "154154.202500", "154155.482500", "154156.762500", "154158.042500", "154159.322500", "154200.602500", "154201.882500", "154203.162500", "154204.442500", "154205.722500", "154207.002500", "154208.282500", "154209.562500", "154210.842500", "154212.122500", "154213.402500", "154214.682500", "154215.962500", "154217.242500", "154218.522500", "154219.802500", "154221.082500", "154222.362500", "154223.642500", "154224.922500", "154226.202500", "154227.482500", "154228.762500", "154230.042500", "154231.322500", "154232.602500", "154233.882500", "154235.162500", "154236.442500", "154237.722500", "154239.002500", "154240.282500", "154241.562500", "154242.842500", "154244.122500", "154245.402500", "154246.682500", "154247.962500", "154249.242500", "154250.522500", "154251.802500", "154253.082500", "154254.362500", "154255.642500", "154256.922500", "154258.202500", "154259.482500", "154300.762500", "154302.042500", "154303.322500", "154304.602500", "154305.882500", "154307.162500", "154308.442500", "154309.722500", "154311.002500", "154312.282500", "154313.562500", "154314.842500", "154316.122500", "154317.402500", "154318.682500", "154319.962500", "154321.242500", "154322.522500", "154323.802500", "154325.082500", "154326.362500", "154327.642500", "154328.922500", "154330.202500", "154331.482500", "154332.762500", "154334.042500", "154335.322500", "154336.602500", "154337.882500", "154339.162500", "154340.442500", "154341.722500", "154343.002500", "154344.282500", "154345.562500", "154346.842500", "154348.122500", "154349.402500", "154350.682500", "154351.962500", "154353.242500", "154354.522500", "154355.802500", "154357.082500", "154358.362500", "154359.642500", "154400.922500", "154402.202500", "154403.482500", "154404.762500", "154406.042500", "154407.322500", "154408.602500", "154409.882500", "154411.162500", "154412.442500", "154413.722500", "154415.002500", "154416.282500", "154417.562500", "154418.842500", "154420.122500", "154421.402500", "154422.682500", "154423.962500", "154425.242500", "154426.522500", "154427.802500", "154429.082500", "154430.362500", "154431.642500", "154432.922500", "154434.202500", "154435.482500", "154436.762500", "154438.042500", "154439.322500", "154440.602500", "154441.882500", "154443.162500", "154444.442500", "154445.722500", "154447.002500", "154448.282500", "154449.562500", "154450.842500", "154452.122500", "154453.402500", "154454.682500", "154455.962500", "154457.242500", "154458.522500", "154459.802500", "154501.082500", "154502.362500", "154503.642500", "154504.922500", "154506.202500", "154507.482500", "154508.762500", "154510.042500", "154511.322500", "154512.602500", "154513.882500", "154515.162500", "154516.442500", "154517.722500", "154519.002500", "154520.282500", "154521.562500", "154522.842500", "154524.122500", "154525.402500", "154526.682500", "154527.962500", "154529.242500", "154530.522500", "154531.802500", "154533.082500", "154534.362500", "154535.642500", "154536.922500", "154538.202500", "154539.482500", "154540.762500", "154542.042500", "154543.322500", "154544.602500", "154545.882500", "154547.162500", "154548.442500", "154549.722500", "154551.002500", "154552.282500", "154553.562500", "154554.842500", "154556.122500", "154557.402500", "154558.682500", "154559.962500", "154601.242500", "154602.522500", "154603.802500", "154605.082500", "154606.362500", "154607.642500", "154608.922500", "154610.202500", "154611.482500", "154612.762500", "154614.042500", "154615.322500", "154616.602500", "154617.882500", "154619.162500", "154620.442500", "154621.722500", "154623.002500", "154624.282500", "154625.562500", "154626.842500", "154628.122500", "154629.402500", "154630.682500", "154631.962500", "154633.242500", "154634.522500", "154635.802500", "154637.082500", "154638.362500", "154639.642500", "154640.922500", "154642.202500", "154643.482500", "154644.762500", "154646.042500", "154647.322500", "154648.602500", "154649.882500", "154651.162500", "154652.442500", "154653.722500", "154655.002500", "154656.282500", "154657.562500", "154658.842500", "154700.122500", "154701.402500", "154702.682500", "154703.962500", "154705.242500", "154706.522500", "154707.802500", "154709.082500", "154710.362500", "154711.642500", "154712.922500", "154714.202500", "154715.482500", "154716.762500", "154718.042500", "154719.322500", "154720.602500", "154721.882500", "154723.162500", "154724.442500", "154725.722500", "154727.002500", "154728.282500", "154729.562500", "154730.842500", "154732.122500", "154733.402500", "154734.682500", "154735.962500", "154737.242500", "154738.522500", "154739.802500", "154741.082500", "154742.362500", "154743.642500", "154744.922500", "154746.202500", "154747.482500", "154748.762500", "154750.042500", "154751.322500", "154752.602500", "154753.882500", "154755.162500", "154756.442500", "154757.722500", "154759.002500", "154800.282500", "154801.562500", "154802.842500", "154804.122500", "154805.402500", "154806.682500", "154807.962500", "154809.242500", "154810.522500", "154811.802500", "154813.082500", "154814.362500", "154815.642500", "154816.922500", "154818.202500", "154819.482500", "154820.762500", "154822.042500", "154823.322500", "154824.602500", "154825.882500", "154827.162500", "154828.442500", "154829.722500", "154831.002500", "154832.282500", "154833.562500", "154834.842500", "154836.122500", "154837.402500", "154838.682500", "154839.962500", "154841.242500", "154842.522500", "154843.802500", "154845.082500", "154846.362500", "154847.642500", "154848.922500", "154850.202500", "154851.482500", "154852.762500", "154854.042500", "154855.322500", "154856.602500", "154857.882500", "154859.162500", "154900.442500", "154901.722500", "154903.002500", "154904.282500", "154905.562500", "154906.842500", "154908.122500", "154909.402500", "154910.682500", "154911.962500", "154913.242500", "154914.522500", "154915.802500", "154917.082500", "154918.362500", "154919.642500", "154920.922500", "154922.202500", "154923.482500", "154924.762500", "154926.042500", "154927.322500", "154928.602500"],
      "ContentTime": ["154209.860000", "154209.863000", "154209.866000", "154209.869000", "154209.872000", "154209.875000", "154209.878000", "154209.881000", "154209.884000", "154209.886000", "154209.889000", "154209.892000", "154209.895000", "154209.898000", "154209.908000", "154209.910000", "154209.917000", "154209.920000", "154209.923000", "154209.926000", "154209.929000", "154209.932000", "154209.935000", "154209.943000", "154209.946000", "154209.949000", "154209.952000", "154209.955000", "154249.855000", "154249.859000", "154249.862000", "154249.865000", "154249.868000", "154249.871000", "154249.874000", "154249.876000", "154249.879000", "154249.882000", "154249.885000", "154249.888000", "154249.891000", "154249.894000", "154249.897000", "154249.900000", "154249.902000", "154249.905000", "154249.908000", "154249.911000", "154249.914000", "154249.917000", "154249.920000", "154249.923000", "154249.925000", "154249.928000", "154249.931000", "154249.934000", "154249.941000", "154249.944000", "154249.947000", "154249.949000", "154329.856000", "154329.859000", "154329.862000", "154329.865000", "154329.868000", "154329.871000", "154329.874000", "154329.877000", "154329.879000", "154329.882000", "154329.885000", "154329.888000", "154329.891000", "154329.894000", "154329.897000", "154329.899000", "154329.916000", "154329.919000", "154329.922000", "154329.924000", "154329.927000", "154329.930000", "154329.933000", "154329.936000", "154329.939000", "154329.942000", "154329.945000", "154329.947000", "154329.954000", "154329.957000", "154329.960000", "154409.856000", "154409.859000", "154409.862000", "154409.865000", "154409.868000", "154409.871000", "154409.874000", "154409.876000", "154409.879000", "154409.882000", "154409.885000", "154409.888000", "154409.892000", "154409.895000", "154409.898000", "154409.901000", "154409.904000", "154409.907000", "154409.909000", "154409.912000", "154409.915000", "154409.918000", "154409.921000", "154409.924000", "154409.927000", "154409.930000", "154409.933000", "154409.936000", "154409.938000", "154409.941000", "154409.944000", "154449.855000", "154449.858000", "154449.861000", "154449.864000", "154449.867000", "154449.870000", "154449.873000", "154449.876000", "154449.879000", "154449.881000", "154449.884000", "154449.887000", "154449.890000", "154449.893000", "154449.896000", "154449.899000", "154449.902000", "154449.905000", "154449.907000", "154449.910000", "154449.913000", "154449.916000", "154449.919000", "154449.922000", "154449.925000", "154449.928000", "154449.930000", "154449.933000", "154449.936000", "154449.939000", "154449.942000", "154529.856000", "154529.869000", "154529.872000", "154529.875000", "154529.877000", "154529.880000", "154529.883000", "154529.886000", "154529.889000", "154529.892000", "154529.895000", "154529.898000", "154529.901000", "154529.903000", "154529.906000", "154529.909000", "154529.912000", "154529.915000", "154529.918000", "154529.921000", "154529.924000", "154529.926000", "154529.929000", "154529.932000", "154529.935000", "154529.938000", "154529.941000", "154529.944000", "154529.947000", "154529.950000", "154529.953000", "154529.956000", "154609.856000", "154609.859000", "154609.862000", "154609.865000", "154609.868000", "154609.871000", "154609.874000", "154609.877000", "154609.879000", "154609.882000", "154609.885000", "154609.888000", "154609.891000", "154609.894000", "154609.897000", "154609.900000", "154609.903000", "154609.905000", "154609.908000", "154609.911000", "154609.914000", "154609.917000", "154609.920000", "154609.923000", "154609.926000", "154609.929000", "154609.932000", "154609.934000", "154609.937000", "154609.940000", "154609.943000", "154649.855000", "154649.858000", "154649.861000", "154649.864000", "154649.867000", "154649.870000", "154649.873000", "154649.876000", "154649.879000", "154649.882000", "154649.884000", "154649.888000", "154649.892000", "154649.895000", "154649.898000", "154649.901000", "154649.903000", "154649.906000", "154649.909000", "154649.912000", "154649.915000", "154649.918000", "154649.921000", "154649.924000", "154649.927000", "154649.930000", "154649.933000", "154649.935000", "154649.938000", "154649.941000", "154649.944000", "154729.856000", "154729.859000", "154729.862000", "154729.865000", "154729.868000", "154729.871000", "154729.874000", "154729.877000", "154729.880000", "154729.883000", "154729.885000", "154729.888000", "154729.891000", "154729.894000", "154729.897000", "154729.900000", "154729.903000", "154729.906000", "154729.909000", "154729.912000", "154729.915000", "154729.928000", "154729.931000", "154729.934000", "154729.937000", "154729.940000", "154729.942000", "154729.945000", "154729.948000", "154729.951000", "154729.954000", "154809.856000", "154809.859000", "154809.862000", "154809.865000", "154809.868000", "154809.871000", "154809.874000", "154809.876000", "154809.879000", "154809.882000", "154809.885000", "154809.888000", "154809.891000", "154809.894000", "154809.897000", "154809.900000", "154809.903000", "154809.906000", "154809.908000", "154809.911000", "154809.914000", "154809.917000", "154809.920000", "154809.923000", "154809.926000", "154809.929000", "154809.931000", "154809.934000", "154809.937000", "154809.940000", "154809.943000", "154809.946000", "154849.856000", "154849.859000", "154849.862000", "154849.865000", "154849.868000", "154849.871000", "154849.874000", "154849.877000", "154849.880000", "154849.882000", "154849.885000", "154849.888000", "154849.891000", "154849.894000", "154849.897000", "154849.900000", "154849.903000", "154849.906000", "154849.908000", "154849.911000", "154849.914000", "154849.917000", "154849.920000", "154849.923000", "154849.926000", "154849.929000", "154849.932000", "154849.935000", "154849.937000", "154849.940000", "154849.943000", "154929.855000", "154929.858000", "154929.861000", "154929.864000", "154929.867000", "154929.870000", "154929.873000", "154929.876000", "154929.879000", "154929.881000", "154929.884000", "154929.887000", "154929.890000", "154929.893000", "154929.896000", "154929.899000", "154929.902000", "154929.905000", "154929.909000", "154929.912000", "154929.915000", "154929.918000", "154929.921000", "154929.924000", "154929.927000", "154929.930000", "154929.933000", "154929.936000", "154929.946000", "154929.949000", "154929.952000", "154930.399000"],
      "InstanceCreationTime": ["154209.860000", "154209.863000", "154209.866000", "154209.869000", "154209.872000", "154209.875000", "154209.878000", "154209.881000", "154209.884000", "154209.886000", "154209.889000", "154209.892000", "154209.895000", "154209.898000", "154209.908000", "154209.910000", "154209.917000", "154209.920000", "154209.923000", "154209.926000", "154209.929000", "154209.932000", "154209.935000", "154209.943000", "154209.946000", "154209.949000", "154209.952000", "154209.955000", "154249.855000", "154249.859000", "154249.862000", "154249.865000", "154249.868000", "154249.871000", "154249.874000", "154249.876000", "154249.879000", "154249.882000", "154249.885000", "154249.888000", "154249.891000", "154249.894000", "154249.897000", "154249.900000", "154249.902000", "154249.905000", "154249.908000", "154249.911000", "154249.914000", "154249.917000", "154249.920000", "154249.923000", "154249.925000", "154249.928000", "154249.931000", "154249.934000", "154249.941000", "154249.944000", "154249.947000", "154249.949000", "154329.856000", "154329.859000", "154329.862000", "154329.865000", "154329.868000", "154329.871000", "154329.874000", "154329.877000", "154329.879000", "154329.882000", "154329.885000", "154329.888000", "154329.891000", "154329.894000", "154329.897000", "154329.899000", "154329.916000", "154329.919000", "154329.922000", "154329.924000", "154329.927000", "154329.930000", "154329.933000", "154329.936000", "154329.939000", "154329.942000", "154329.945000", "154329.947000", "154329.954000", "154329.957000", "154329.960000", "154409.856000", "154409.859000", "154409.862000", "154409.865000", "154409.868000", "154409.871000", "154409.874000", "154409.876000", "154409.879000", "154409.882000", "154409.885000", "154409.888000", "154409.892000", "154409.895000", "154409.898000", "154409.901000", "154409.904000", "154409.907000", "154409.909000", "154409.912000", "154409.915000", "154409.918000", "154409.921000", "154409.924000", "154409.927000", "154409.930000", "154409.933000", "154409.936000", "154409.938000", "154409.941000", "154409.944000", "154449.855000", "154449.858000", "154449.861000", "154449.864000", "154449.867000", "154449.870000", "154449.873000", "154449.876000", "154449.879000", "154449.881000", "154449.884000", "154449.887000", "154449.890000", "154449.893000", "154449.896000", "154449.899000", "154449.902000", "154449.905000", "154449.907000", "154449.910000", "154449.913000", "154449.916000", "154449.919000", "154449.922000", "154449.925000", "154449.928000", "154449.930000", "154449.933000", "154449.936000", "154449.939000", "154449.942000", "154529.856000", "154529.869000", "154529.872000", "154529.875000", "154529.877000", "154529.880000", "154529.883000", "154529.886000", "154529.889000", "154529.892000", "154529.895000", "154529.898000", "154529.901000", "154529.903000", "154529.906000", "154529.909000", "154529.912000", "154529.915000", "154529.918000", "154529.921000", "154529.924000", "154529.926000", "154529.929000", "154529.932000", "154529.935000", "154529.938000", "154529.941000", "154529.944000", "154529.947000", "154529.950000", "154529.953000", "154529.956000", "154609.856000", "154609.859000", "154609.862000", "154609.865000", "154609.868000", "154609.871000", "154609.874000", "154609.877000", "154609.879000", "154609.882000", "154609.885000", "154609.888000", "154609.891000", "154609.894000", "154609.897000", "154609.900000", "154609.903000", "154609.905000", "154609.908000", "154609.911000", "154609.914000", "154609.917000", "154609.920000", "154609.923000", "154609.926000", "154609.929000", "154609.932000", "154609.934000", "154609.937000", "154609.940000", "154609.943000", "154649.855000", "154649.858000", "154649.861000", "154649.864000", "154649.867000", "154649.870000", "154649.873000", "154649.876000", "154649.879000", "154649.882000", "154649.884000", "154649.888000", "154649.892000", "154649.895000", "154649.898000", "154649.901000", "154649.903000", "154649.906000", "154649.909000", "154649.912000", "154649.915000", "154649.918000", "154649.921000", "154649.924000", "154649.927000", "154649.930000", "154649.933000", "154649.935000", "154649.938000", "154649.941000", "154649.944000", "154729.856000", "154729.859000", "154729.862000", "154729.865000", "154729.868000", "154729.871000", "154729.874000", "154729.877000", "154729.880000", "154729.883000", "154729.885000", "154729.888000", "154729.891000", "154729.894000", "154729.897000", "154729.900000", "154729.903000", "154729.906000", "154729.909000", "154729.912000", "154729.915000", "154729.928000", "154729.931000", "154729.934000", "154729.937000", "154729.940000", "154729.942000", "154729.945000", "154729.948000", "154729.951000", "154729.954000", "154809.856000", "154809.859000", "154809.862000", "154809.865000", "154809.868000", "154809.871000", "154809.874000", "154809.876000", "154809.879000", "154809.882000", "154809.885000", "154809.888000", "154809.891000", "154809.894000", "154809.897000", "154809.900000", "154809.903000", "154809.906000", "154809.908000", "154809.911000", "154809.914000", "154809.917000", "154809.920000", "154809.923000", "154809.926000", "154809.929000", "154809.931000", "154809.934000", "154809.937000", "154809.940000", "154809.943000", "154809.946000", "154849.856000", "154849.859000", "154849.862000", "154849.865000", "154849.868000", "154849.871000", "154849.874000", "154849.877000", "154849.880000", "154849.882000", "154849.885000", "154849.888000", "154849.891000", "154849.894000", "154849.897000", "154849.900000", "154849.903000", "154849.906000", "154849.908000", "154849.911000", "154849.914000", "154849.917000", "154849.920000", "154849.923000", "154849.926000", "154849.929000", "154849.932000", "154849.935000", "154849.937000", "154849.940000", "154849.943000", "154929.855000", "154929.858000", "154929.861000", "154929.864000", "154929.867000", "154929.870000", "154929.873000", "154929.876000", "154929.879000", "154929.881000", "154929.884000", "154929.887000", "154929.890000", "154929.893000", "154929.896000", "154929.899000", "154929.902000", "154929.905000", "154929.909000", "154929.912000", "154929.915000", "154929.918000", "154929.921000", "154929.924000", "154929.927000", "154929.930000", "154929.933000", "154929.936000", "154929.946000", "154929.949000", "154929.952000", "154930.399000"],
      "InstanceNumber": [1, 2, 3, 4, 5, 6, 7, 8, 9, 10, 11, 12, 13, 14, 15, 16, 17, 18, 19, 20, 21, 22, 23, 24, 25, 26, 27, 28, 29, 30, 31, 32, 33, 34, 35, 36, 37, 38, 39, 40, 41, 42, 43, 44, 45, 46, 47, 48, 49, 50, 51, 52, 53, 54, 55, 56, 57, 58, 59, 60, 61, 62, 63, 64, 65, 66, 67, 68, 69, 70, 71, 72, 73, 74, 75, 76, 77, 78, 79, 80, 81, 82, 83, 84, 85, 86, 87, 88, 89, 90, 91, 92, 93, 94, 95, 96, 97, 98, 99, 100, 101, 102, 103, 104, 105, 106, 107, 108, 109, 110, 111, 112, 113, 114, 115, 116, 117, 118, 119, 120, 121, 122, 123, 124, 125, 126, 127, 128, 129, 130, 131, 132, 133, 134, 135, 136, 137, 138, 139, 140, 141, 142, 143, 144, 145, 146, 147, 148, 149, 150, 151, 152, 153, 154, 155, 156, 157, 158, 159, 160, 161, 162, 163, 164, 165, 166, 167, 168, 169, 170, 171, 172, 173, 174, 175, 176, 177, 178, 179, 180, 181, 182, 183, 184, 185, 186, 187, 188, 189, 190, 191, 192, 193, 194, 195, 196, 197, 198, 199, 200, 201, 202, 203, 204, 205, 206, 207, 208, 209, 210, 211, 212, 213, 214, 215, 216, 217, 218, 219, 220, 221, 222, 223, 224, 225, 226, 227, 228, 229, 230, 231, 232, 233, 234, 235, 236, 237, 238, 239, 240, 241, 242, 243, 244, 245, 246, 247, 248, 249, 250, 251, 252, 253, 254, 255, 256, 257, 258, 259, 260, 261, 262, 263, 264, 265, 266, 267, 268, 269, 270, 271, 272, 273, 274, 275, 276, 277, 278, 279, 280, 281, 282, 283, 284, 285, 286, 287, 288, 289, 290, 291, 292, 293, 294, 295, 296, 297, 298, 299, 300, 301, 302, 303, 304, 305, 306, 307, 308, 309, 310, 311, 312, 313, 314, 315, 316, 317, 318, 319, 320, 321, 322, 323, 324, 325, 326, 327, 328, 329, 330, 331, 332, 333, 334, 335, 336, 337, 338, 339, 340, 341, 342, 343, 344, 345, 346, 347, 348, 349, 350, 351, 352, 353, 354, 355, 356, 357, 358, 359, 360, 361, 362, 363, 364, 365, 366, 367, 368, 369, 370, 371, 372, 373],
