{
  "AcquisitionMatrixPE": 108,
  "AcquisitionNumber": 1,
  "AcquisitionTime": "11:31:47.667500",
  "BandwidthPerPixelPhaseEncode": 15.964,
  "BaseResolution": 108,
  "BodyPartExamined": "BRAIN",
  "ConsistencyInfo": "N4_VE11C_LATEST_20160120",
  "ConversionSoftware": "dcm2niix",
  "ConversionSoftwareVersion": "v1.0.20180622 GCC6.3.0",
  "DerivedVendorReportedEchoSpacing": 0.000580009,
  "DeviceSerialNumber": "66054",
  "DwellTime": 2.1e-06,
  "EchoTime": 0.031,
  "EchoTrainLength": 95,
  "EffectiveEchoSpacing": 0.000580009,
  "FlipAngle": 64,
  "ImageOrientationPatientDICOM": [0.99801, 0.0628264, -0.00533532, -0.061041, 0.941503, -0.331431],
  "ImageType": [
    "ORIGINAL",
    "PRIMARY",
    "M",
    "ND",
    "MOSAIC"
],
  "InPlanePhaseEncodingDirectionDICOM": "COL",
  "InstitutionAddress": "Chemin_des_Mines_9_Geneve_District_CH_1211",
  "InstitutionName": "Fondation_Campus_Biotech_Geneva",
  "InstitutionalDepartmentName": "Department",
  "MRAcquisitionType": "2D",
  "MagneticFieldStrength": 3,
  "Manufacturer": "Siemens",
  "ManufacturersModelName": "Prisma",
  "Modality": "MR",
  "MultibandAccelerationFactor": 4,
  "PartialFourier": 0.875,
  "PatientPosition": "HFS",
  "PercentPhaseFOV": 100,
  "PhaseEncodingDirection": "j-",
  "PhaseEncodingSteps": 95,
  "PhaseResolution": 1,
  "PixelBandwidth": 2205,
  "ProcedureStepDescription": "J.DRM_Michael",
  "ProtocolName": "Run2_bold_s4_TR1.28",
  "PulseSequenceDetails": "%SiemensSeq%_ep2d_bold",
  "ReceiveCoilActiveElements": "HC1-7;NC1,2",
  "ReceiveCoilName": "HeadNeck_64",
  "ReconMatrixPE": 108,
  "RepetitionTime": 1.28,
  "SAR": 0.0766253,
  "ScanOptions": "PFP_FS",
  "ScanningSequence": "EP",
  "SequenceName": "_epfid2d1_108",
  "SequenceVariant": "SK",
  "SeriesDescription": "Run2_bold_s4_TR1.28",
  "SeriesNumber": 7,
  "ShimSetting": [-1243, -11699, 6310, 626, 216, -405, 318, 6],
  "SliceThickness": 2,
  "SliceTiming": [0.945, 0, 0.63, 0.08, 0.71, 0.1575, 0.7875, 0.2375, 0.8675, 0.395, 1.025, 0.4725, 1.1025, 0.5525, 1.1825, 0.315, 0.945, 0, 0.63, 0.08, 0.71, 0.1575, 0.7875, 0.2375, 0.8675, 0.395, 1.025, 0.4725, 1.1025, 0.5525, 1.1825, 0.315, 0.945, 0, 0.63, 0.08, 0.71, 0.1575, 0.7875, 0.2375, 0.8675, 0.395, 1.025, 0.4725, 1.1025, 0.5525, 1.1825, 0.315, 0.945, 0, 0.63, 0.08, 0.71, 0.1575, 0.7875, 0.2375, 0.8675, 0.395, 1.025, 0.4725, 1.1025, 0.5525, 1.1825, 0.315],
  "SoftwareVersions": "syngo_MR_E11",
  "SpacingBetweenSlices": 2,
  "StationName": "AWP66054",
  "TaskName": "main",
  "TotalReadoutTime": 0.0620609,
  "TxRefAmp": 254.784,
  "dcmmeta_affine": [
    [-1.9867795705795288, -0.12151672691106796, 0.03159879148006439, 109.65276336669922],
    [-0.12507103383541107, 1.8742879629135132, -0.662194550037384, -61.7752685546875],
    [-0.010621241293847561, 0.6597933769226074, 1.886928677558899, -81.99578094482422],
    [0.0, 0.0, 0.0, 1.0]
],
  "dcmmeta_reorient_transform": [
    [0.0, -1.0, 0.0, 107.0],
    [1.0, 0.0, 0.0, 0.0],
    [0.0, 0.0, 1.0, 0.0],
    [0.0, 0.0, 0.0, 1.0]
],
  "dcmmeta_shape": [108, 108, 64, 373],
  "dcmmeta_slice_dim": 2,
  "dcmmeta_version": 0.6,
  "global": {
    "const": {
      "AccessionNumber": "",
      "AcquisitionMatrix": [108, 0, 0, 108],
      "AngioFlag": "N",
      "BitsAllocated": 16,
      "BitsStored": 12,
      "BodyPartExamined": "BRAIN",
      "Columns": 864,
      "EchoNumbers": 1,
      "EchoTime": 31.0,
      "EchoTrainLength": 95,
      "FlipAngle": 64.0,
      "HighBit": 11,
      "ImageOrientationPatient": [0.99801021053685, 0.0628263798997, -0.005335321254, -0.0610409595712, 0.94150275170642, -0.3314310935683],
      "ImagePositionPatient": [-801.71984728809, -894.53122547327, 242.01884112408],
      "ImageType": [
        "ORIGINAL",
        "PRIMARY",
        "M",
        "ND",
        "MOSAIC"
],
      "ImagedNucleus": "1H",
      "ImagingFrequency": 123.257503,
      "InPlanePhaseEncodingDirection": "COL",
      "MRAcquisitionType": "2D",
      "MagneticFieldStrength": 3.0,
      "Manufacturer": "SIEMENS",
      "ManufacturerModelName": "Prisma",
      "Modality": "MR",
      "NumberOfAverages": 1.0,
      "NumberOfPhaseEncodingSteps": 95,
      "PercentPhaseFieldOfView": 100.0,
      "PercentSampling": 100.0,
      "PerformedProcedureStepStartTime": "105118.909000",
      "PhotometricInterpretation": "MONOCHROME2",
      "PixelBandwidth": 2205.0,
      "PixelRepresentation": 0,
      "PixelSpacing": [1.990740776062, 1.990740776062],
      "PositionReferenceIndicator": "",
      "ProtocolName": "Run2_bold_s4_TR1.28",
      "RepetitionTime": 1280.0,
      "Rows": 864,
      "SAR": 0.07662528992787,
      "SamplesPerPixel": 1,
      "ScanOptions": [
        "PFP",
        "FS"
],
      "ScanningSequence": "EP",
      "SequenceName": "*epfid2d1_108",
      "SequenceVariant": "SK",
      "SeriesDescription": "Run2_bold_s4_TR1.28",
      "SeriesNumber": 7,
      "SeriesTime": "113225.707000",
      "SliceLocation": -55.174027165833,
      "SliceThickness": 2.0,
      "SmallestImagePixelValue": 0,
      "SoftwareVersions": "syngo MR E11",
      "SpacingBetweenSlices": 1.9999999411637,
      "SpecificCharacterSet": "ISO_IR 100",
      "StudyID": "1",
      "StudyTime": "105118.827000",
      "TransmitCoilName": "Body",
      "VariableFlipAngleFlag": "N",
      "WindowCenterWidthExplanation": "Algo1",
      "dBdt": 0.0},
    "slices": {}
  },
  "time": {
    "samples": {
      "AcquisitionNumber": [1, 2, 3, 4, 5, 6, 7, 8, 9, 10, 11, 12, 13, 14, 15, 16, 17, 18, 19, 20, 21, 22, 23, 24, 25, 26, 27, 28, 29, 30, 31, 32, 33, 34, 35, 36, 37, 38, 39, 40, 41, 42, 43, 44, 45, 46, 47, 48, 49, 50, 51, 52, 53, 54, 55, 56, 57, 58, 59, 60, 61, 62, 63, 64, 65, 66, 67, 68, 69, 70, 71, 72, 73, 74, 75, 76, 77, 78, 79, 80, 81, 82, 83, 84, 85, 86, 87, 88, 89, 90, 91, 92, 93, 94, 95, 96, 97, 98, 99, 100, 101, 102, 103, 104, 105, 106, 107, 108, 109, 110, 111, 112, 113, 114, 115, 116, 117, 118, 119, 120, 121, 122, 123, 124, 125, 126, 127, 128, 129, 130, 131, 132, 133, 134, 135, 136, 137, 138, 139, 140, 141, 142, 143, 144, 145, 146, 147, 148, 149, 150, 151, 152, 153, 154, 155, 156, 157, 158, 159, 160, 161, 162, 163, 164, 165, 166, 167, 168, 169, 170, 171, 172, 173, 174, 175, 176, 177, 178, 179, 180, 181, 182, 183, 184, 185, 186, 187, 188, 189, 190, 191, 192, 193, 194, 195, 196, 197, 198, 199, 200, 201, 202, 203, 204, 205, 206, 207, 208, 209, 210, 211, 212, 213, 214, 215, 216, 217, 218, 219, 220, 221, 222, 223, 224, 225, 226, 227, 228, 229, 230, 231, 232, 233, 234, 235, 236, 237, 238, 239, 240, 241, 242, 243, 244, 245, 246, 247, 248, 249, 250, 251, 252, 253, 254, 255, 256, 257, 258, 259, 260, 261, 262, 263, 264, 265, 266, 267, 268, 269, 270, 271, 272, 273, 274, 275, 276, 277, 278, 279, 280, 281, 282, 283, 284, 285, 286, 287, 288, 289, 290, 291, 292, 293, 294, 295, 296, 297, 298, 299, 300, 301, 302, 303, 304, 305, 306, 307, 308, 309, 310, 311, 312, 313, 314, 315, 316, 317, 318, 319, 320, 321, 322, 323, 324, 325, 326, 327, 328, 329, 330, 331, 332, 333, 334, 335, 336, 337, 338, 339, 340, 341, 342, 343, 344, 345, 346, 347, 348, 349, 350, 351, 352, 353, 354, 355, 356, 357, 358, 359, 360, 361, 362, 363, 364, 365, 366, 367, 368, 369, 370, 371, 372, 373],
      "AcquisitionTime": ["113147.667500", "113148.947500", "113150.227500", "113151.507500", "113152.787500", "113154.067500", "113155.347500", "113156.627500", "113157.907500", "113159.187500", "113200.467500", "113201.747500", "113203.027500", "113204.307500", "113205.587500", "113206.867500", "113208.147500", "113209.427500", "113210.707500", "113211.987500", "113213.267500", "113214.547500", "113215.827500", "113217.107500", "113218.387500", "113219.667500", "113220.947500", "113222.227500", "113223.507500", "113224.787500", "113226.067500", "113227.347500", "113228.627500", "113229.907500", "113231.187500", "113232.467500", "113233.747500", "113235.027500", "113236.307500", "113237.587500", "113238.867500", "113240.147500", "113241.427500", "113242.707500", "113243.987500", "113245.267500", "113246.547500", "113247.827500", "113249.107500", "113250.387500", "113251.667500", "113252.947500", "113254.227500", "113255.507500", "113256.787500", "113258.067500", "113259.347500", "113300.627500", "113301.907500", "113303.187500", "113304.467500", "113305.747500", "113307.027500", "113308.307500", "113309.587500", "113310.867500", "113312.147500", "113313.427500", "113314.707500", "113315.987500", "113317.267500", "113318.547500", "113319.827500", "113321.107500", "113322.387500", "113323.667500", "113324.947500", "113326.227500", "113327.507500", "113328.787500", "113330.067500", "113331.347500", "113332.627500", "113333.907500", "113335.187500", "113336.467500", "113337.747500", "113339.027500", "113340.307500", "113341.587500", "113342.867500", "113344.147500", "113345.427500", "113346.707500", "113347.987500", "113349.267500", "113350.547500", "113351.827500", "113353.107500", "113354.387500", "113355.667500", "113356.947500", "113358.227500", "113359.507500", "113400.787500", "113402.067500", "113403.347500", "113404.627500", "113405.907500", "113407.187500", "113408.467500", "113409.747500", "113411.027500", "113412.307500", "113413.587500", "113414.867500", "113416.147500", "113417.427500", "113418.707500", "113419.987500", "113421.267500", "113422.547500", "113423.827500", "113425.107500", "113426.387500", "113427.667500", "113428.947500", "113430.227500", "113431.507500", "113432.787500", "113434.067500", "113435.347500", "113436.627500", "113437.907500", "113439.187500", "113440.467500", "113441.747500", "113443.027500", "113444.307500", "113445.587500", "113446.867500", "113448.147500", "113449.427500", "113450.707500", "113451.987500", "113453.267500", "113454.547500", "113455.827500", "113457.107500", "113458.387500", "113459.667500", "113500.947500", "113502.227500", "113503.507500", "113504.787500", "113506.067500", "113507.347500", "113508.627500", "113509.907500", "113511.187500", "113512.467500", "113513.747500", "113515.027500", "113516.307500", "113517.587500", "113518.867500", "113520.147500", "113521.427500", "113522.707500", "113523.987500", "113525.267500", "113526.547500", "113527.827500", "113529.107500", "113530.387500", "113531.667500", "113532.947500", "113534.227500", "113535.507500", "113536.787500", "113538.067500", "113539.347500", "113540.627500", "113541.907500", "113543.187500", "113544.467500", "113545.747500", "113547.027500", "113548.307500", "113549.587500", "113550.867500", "113552.147500", "113553.427500", "113554.707500", "113555.987500", "113557.267500", "113558.547500", "113559.827500", "113601.107500", "113602.387500", "113603.667500", "113604.947500", "113606.227500", "113607.507500", "113608.787500", "113610.067500", "113611.347500", "113612.627500", "113613.907500", "113615.187500", "113616.467500", "113617.747500", "113619.027500", "113620.307500", "113621.587500", "113622.867500", "113624.147500", "113625.427500", "113626.707500", "113627.987500", "113629.267500", "113630.547500", "113631.827500", "113633.107500", "113634.387500", "113635.667500", "113636.947500", "113638.227500", "113639.507500", "113640.787500", "113642.067500", "113643.347500", "113644.627500", "113645.907500", "113647.187500", "113648.467500", "113649.747500", "113651.027500", "113652.307500", "113653.587500", "113654.867500", "113656.147500", "113657.427500", "113658.707500", "113659.987500", "113701.267500", "113702.547500", "113703.827500", "113705.107500", "113706.387500", "113707.667500", "113708.947500", "113710.227500", "113711.507500", "113712.787500", "113714.067500", "113715.347500", "113716.627500", "113717.907500", "113719.187500", "113720.467500", "113721.747500", "113723.027500", "113724.307500", "113725.587500", "113726.867500", "113728.147500", "113729.427500", "113730.707500", "113731.987500", "113733.267500", "113734.547500", "113735.827500", "113737.107500", "113738.387500", "113739.667500", "113740.947500", "113742.227500", "113743.507500", "113744.787500", "113746.067500", "113747.347500", "113748.627500", "113749.907500", "113751.187500", "113752.467500", "113753.747500", "113755.027500", "113756.307500", "113757.587500", "113758.867500", "113800.147500", "113801.427500", "113802.707500", "113803.987500", "113805.267500", "113806.547500", "113807.827500", "113809.107500", "113810.387500", "113811.667500", "113812.947500", "113814.227500", "113815.507500", "113816.787500", "113818.067500", "113819.347500", "113820.627500", "113821.907500", "113823.187500", "113824.467500", "113825.747500", "113827.027500", "113828.307500", "113829.587500", "113830.867500", "113832.147500", "113833.427500", "113834.707500", "113835.987500", "113837.267500", "113838.547500", "113839.827500", "113841.107500", "113842.387500", "113843.667500", "113844.947500", "113846.227500", "113847.507500", "113848.787500", "113850.067500", "113851.347500", "113852.627500", "113853.907500", "113855.187500", "113856.467500", "113857.747500", "113859.027500", "113900.307500", "113901.587500", "113902.867500", "113904.147500", "113905.427500", "113906.707500", "113907.987500", "113909.267500", "113910.547500", "113911.827500", "113913.107500", "113914.387500", "113915.667500", "113916.947500", "113918.227500", "113919.507500", "113920.787500", "113922.067500", "113923.347500", "113924.627500", "113925.907500", "113927.187500", "113928.467500", "113929.747500", "113931.027500", "113932.307500", "113933.587500", "113934.867500", "113936.147500", "113937.427500", "113938.707500", "113939.987500", "113941.267500", "113942.547500", "113943.827500"],
      "ContentTime": ["113225.711000", "113225.723000", "113225.726000", "113225.729000", "113225.731000", "113225.741000", "113225.744000", "113225.746000", "113225.749000", "113225.752000", "113225.755000", "113225.758000", "113225.761000", "113225.764000", "113225.767000", "113225.770000", "113225.773000", "113225.776000", "113225.779000", "113225.782000", "113225.784000", "113225.787000", "113225.790000", "113225.804000", "113225.807000", "113225.824000", "113225.827000", "113225.830000", "113225.833000", "113305.706000", "113305.709000", "113305.712000", "113305.715000", "113305.718000", "113305.721000", "113305.724000", "113305.727000", "113305.730000", "113305.733000", "113305.735000", "113305.738000", "113305.741000", "113305.744000", "113305.747000", "113305.750000", "113305.753000", "113305.756000", "113305.759000", "113305.768000", "113305.771000", "113305.774000", "113305.777000", "113305.780000", "113305.783000", "113305.786000", "113305.789000", "113305.792000", "113305.795000", "113305.797000", "113305.800000", "113305.803000", "113345.706000", "113345.709000", "113345.712000", "113345.715000", "113345.718000", "113345.720000", "113345.723000", "113345.727000", "113345.730000", "113345.732000", "113345.735000", "113345.738000", "113345.741000", "113345.744000", "113345.747000", "113345.750000", "113345.753000", "113345.756000", "113345.759000", "113345.762000", "113345.765000", "113345.767000", "113345.770000", "113345.773000", "113345.776000", "113345.779000", "113345.782000", "113345.785000", "113345.788000", "113345.796000", "113345.799000", "113425.706000", "113425.709000", "113425.712000", "113425.715000", "113425.718000", "113425.721000", "113425.724000", "113425.727000", "113425.730000", "113425.733000", "113425.736000", "113425.739000", "113425.742000", "113425.745000", "113425.748000", "113425.751000", "113425.754000", "113425.756000", "113425.759000", "113425.762000", "113425.765000", "113425.768000", "113425.771000", "113425.774000", "113425.777000", "113425.780000", "113425.783000", "113425.786000", "113425.789000", "113425.792000", "113425.795000", "113505.706000", "113505.709000", "113505.712000", "113505.715000", "113505.718000", "113505.721000", "113505.724000", "113505.727000", "113505.730000", "113505.733000", "113505.736000", "113505.738000", "113505.741000", "113505.744000", "113505.747000", "113505.750000", "113505.753000", "113505.756000", "113505.759000", "113505.762000", "113505.765000", "113505.768000", "113505.771000", "113505.774000", "113505.776000", "113505.779000", "113505.782000", "113505.786000", "113505.789000", "113505.791000", "113505.795000", "113545.706000", "113545.709000", "113545.712000", "113545.715000", "113545.718000", "113545.720000", "113545.723000", "113545.726000", "113545.729000", "113545.732000", "113545.735000", "113545.738000", "113545.741000", "113545.744000", "113545.747000", "113545.750000", "113545.753000", "113545.756000", "113545.759000", "113545.762000", "113545.764000", "113545.767000", "113545.770000", "113545.773000", "113545.776000", "113545.779000", "113545.782000", "113545.785000", "113545.788000", "113545.791000", "113545.794000", "113545.797000", "113625.706000", "113625.709000", "113625.712000", "113625.715000", "113625.719000", "113625.722000", "113625.725000", "113625.728000", "113625.731000", "113625.734000", "113625.737000", "113625.740000", "113625.743000", "113625.746000", "113625.749000", "113625.752000", "113625.755000", "113625.758000", "113625.761000", "113625.764000", "113625.767000", "113625.770000", "113625.773000", "113625.775000", "113625.778000", "113625.781000", "113625.784000", "113625.787000", "113625.790000", "113625.793000", "113625.796000", "113705.720000", "113705.723000", "113705.726000", "113705.729000", "113705.732000", "113705.735000", "113705.738000", "113705.741000", "113705.743000", "113705.746000", "113705.749000", "113705.752000", "113705.755000", "113705.758000", "113705.761000", "113705.764000", "113705.767000", "113705.770000", "113705.773000", "113705.776000", "113705.778000", "113705.781000", "113705.784000", "113705.787000", "113705.790000", "113705.793000", "113705.796000", "113705.799000", "113705.802000", "113705.805000", "113705.808000", "113745.706000", "113745.709000", "113745.712000", "113745.715000", "113745.718000", "113745.721000", "113745.724000", "113745.727000", "113745.730000", "113745.733000", "113745.736000", "113745.738000", "113745.741000", "113745.744000", "113745.747000", "113745.750000", "113745.753000", "113745.756000", "113745.759000", "113745.762000", "113745.765000", "113745.768000", "113745.771000", "113745.774000", "113745.777000", "113745.780000", "113745.783000", "113745.786000", "113745.789000", "113745.792000", "113745.795000", "113825.706000", "113825.709000", "113825.712000", "113825.715000", "113825.718000", "113825.721000", "113825.724000", "113825.727000", "113825.730000", "113825.733000", "113825.736000", "113825.739000", "113825.742000", "113825.745000", "113825.748000", "113825.751000", "113825.755000", "113825.757000", "113825.760000", "113825.763000", "113825.766000", "113825.769000", "113825.772000", "113825.775000", "113825.778000", "113825.781000", "113825.784000", "113825.787000", "113825.790000", "113825.793000", "113825.795000", "113825.798000", "113905.706000", "113905.709000", "113905.712000", "113905.715000", "113905.718000", "113905.721000", "113905.724000", "113905.727000", "113905.730000", "113905.733000", "113905.736000", "113905.739000", "113905.742000", "113905.745000", "113905.748000", "113905.751000", "113905.754000", "113905.757000", "113905.760000", "113905.763000", "113905.766000", "113905.769000", "113905.772000", "113905.775000", "113905.778000", "113905.780000", "113905.783000", "113905.786000", "113905.789000", "113905.792000", "113905.795000", "113944.898000", "113944.902000", "113944.905000", "113944.911000", "113944.914000", "113944.917000", "113944.920000", "113944.923000", "113944.926000", "113944.929000", "113944.932000", "113944.935000", "113944.938000", "113944.941000", "113944.944000", "113944.947000", "113944.950000", "113944.953000", "113944.956000", "113944.959000", "113944.962000", "113944.965000", "113944.968000", "113944.971000", "113944.973000", "113944.976000", "113944.979000", "113944.982000", "113944.985000", "113944.988000", "113944.991000"],
      "InstanceCreationTime": ["113225.711000", "113225.723000", "113225.726000", "113225.729000", "113225.731000", "113225.741000", "113225.744000", "113225.746000", "113225.749000", "113225.752000", "113225.755000", "113225.758000", "113225.761000", "113225.764000", "113225.767000", "113225.770000", "113225.773000", "113225.776000", "113225.779000", "113225.782000", "113225.784000", "113225.787000", "113225.790000", "113225.804000", "113225.807000", "113225.824000", "113225.827000", "113225.830000", "113225.833000", "113305.706000", "113305.709000", "113305.712000", "113305.715000", "113305.718000", "113305.721000", "113305.724000", "113305.727000", "113305.730000", "113305.733000", "113305.735000", "113305.738000", "113305.741000", "113305.744000", "113305.747000", "113305.750000", "113305.753000", "113305.756000", "113305.759000", "113305.768000", "113305.771000", "113305.774000", "113305.777000", "113305.780000", "113305.783000", "113305.786000", "113305.789000", "113305.792000", "113305.795000", "113305.797000", "113305.800000", "113305.803000", "113345.706000", "113345.709000", "113345.712000", "113345.715000", "113345.718000", "113345.720000", "113345.723000", "113345.727000", "113345.730000", "113345.732000", "113345.735000", "113345.738000", "113345.741000", "113345.744000", "113345.747000", "113345.750000", "113345.753000", "113345.756000", "113345.759000", "113345.762000", "113345.765000", "113345.767000", "113345.770000", "113345.773000", "113345.776000", "113345.779000", "113345.782000", "113345.785000", "113345.788000", "113345.796000", "113345.799000", "113425.706000", "113425.709000", "113425.712000", "113425.715000", "113425.718000", "113425.721000", "113425.724000", "113425.727000", "113425.730000", "113425.733000", "113425.736000", "113425.739000", "113425.742000", "113425.745000", "113425.748000", "113425.751000", "113425.754000", "113425.756000", "113425.759000", "113425.762000", "113425.765000", "113425.768000", "113425.771000", "113425.774000", "113425.777000", "113425.780000", "113425.783000", "113425.786000", "113425.789000", "113425.792000", "113425.795000", "113505.706000", "113505.709000", "113505.712000", "113505.715000", "113505.718000", "113505.721000", "113505.724000", "113505.727000", "113505.730000", "113505.733000", "113505.736000", "113505.738000", "113505.741000", "113505.744000", "113505.747000", "113505.750000", "113505.753000", "113505.756000", "113505.759000", "113505.762000", "113505.765000", "113505.768000", "113505.771000", "113505.774000", "113505.776000", "113505.779000", "113505.782000", "113505.786000", "113505.789000", "113505.791000", "113505.795000", "113545.706000", "113545.709000", "113545.712000", "113545.715000", "113545.718000", "113545.720000", "113545.723000", "113545.726000", "113545.729000", "113545.732000", "113545.735000", "113545.738000", "113545.741000", "113545.744000", "113545.747000", "113545.750000", "113545.753000", "113545.756000", "113545.759000", "113545.762000", "113545.764000", "113545.767000", "113545.770000", "113545.773000", "113545.776000", "113545.779000", "113545.782000", "113545.785000", "113545.788000", "113545.791000", "113545.794000", "113545.797000", "113625.706000", "113625.709000", "113625.712000", "113625.715000", "113625.719000", "113625.722000", "113625.725000", "113625.728000", "113625.731000", "113625.734000", "113625.737000", "113625.740000", "113625.743000", "113625.746000", "113625.749000", "113625.752000", "113625.755000", "113625.758000", "113625.761000", "113625.764000", "113625.767000", "113625.770000", "113625.773000", "113625.775000", "113625.778000", "113625.781000", "113625.784000", "113625.787000", "113625.790000", "113625.793000", "113625.796000", "113705.720000", "113705.723000", "113705.726000", "113705.729000", "113705.732000", "113705.735000", "113705.738000", "113705.741000", "113705.743000", "113705.746000", "113705.749000", "113705.752000", "113705.755000", "113705.758000", "113705.761000", "113705.764000", "113705.767000", "113705.770000", "113705.773000", "113705.776000", "113705.778000", "113705.781000", "113705.784000", "113705.787000", "113705.790000", "113705.793000", "113705.796000", "113705.799000", "113705.802000", "113705.805000", "113705.808000", "113745.706000", "113745.709000", "113745.712000", "113745.715000", "113745.718000", "113745.721000", "113745.724000", "113745.727000", "113745.730000", "113745.733000", "113745.736000", "113745.738000", "113745.741000", "113745.744000", "113745.747000", "113745.750000", "113745.753000", "113745.756000", "113745.759000", "113745.762000", "113745.765000", "113745.768000", "113745.771000", "113745.774000", "113745.777000", "113745.780000", "113745.783000", "113745.786000", "113745.789000", "113745.792000", "113745.795000", "113825.706000", "113825.709000", "113825.712000", "113825.715000", "113825.718000", "113825.721000", "113825.724000", "113825.727000", "113825.730000", "113825.733000", "113825.736000", "113825.739000", "113825.742000", "113825.745000", "113825.748000", "113825.751000", "113825.755000", "113825.757000", "113825.760000", "113825.763000", "113825.766000", "113825.769000", "113825.772000", "113825.775000", "113825.778000", "113825.781000", "113825.784000", "113825.787000", "113825.790000", "113825.793000", "113825.795000", "113825.798000", "113905.706000", "113905.709000", "113905.712000", "113905.715000", "113905.718000", "113905.721000", "113905.724000", "113905.727000", "113905.730000", "113905.733000", "113905.736000", "113905.739000", "113905.742000", "113905.745000", "113905.748000", "113905.751000", "113905.754000", "113905.757000", "113905.760000", "113905.763000", "113905.766000", "113905.769000", "113905.772000", "113905.775000", "113905.778000", "113905.780000", "113905.783000", "113905.786000", "113905.789000", "113905.792000", "113905.795000", "113944.898000", "113944.902000", "113944.905000", "113944.911000", "113944.914000", "113944.917000", "113944.920000", "113944.923000", "113944.926000", "113944.929000", "113944.932000", "113944.935000", "113944.938000", "113944.941000", "113944.944000", "113944.947000", "113944.950000", "113944.953000", "113944.956000", "113944.959000", "113944.962000", "113944.965000", "113944.968000", "113944.971000", "113944.973000", "113944.976000", "113944.979000", "113944.982000", "113944.985000", "113944.988000", "113944.991000"],
      "InstanceNumber": [1, 2, 3, 4, 5, 6, 7, 8, 9, 10, 11, 12, 13, 14, 15, 16, 17, 18, 19, 20, 21, 22, 23, 24, 25, 26, 27, 28, 29, 30, 31, 32, 33, 34, 35, 36, 37, 38, 39, 40, 41, 42, 43, 44, 45, 46, 47, 48, 49, 50, 51, 52, 53, 54, 55, 56, 57, 58, 59, 60, 61, 62, 63, 64, 65, 66, 67, 68, 69, 70, 71, 72, 73, 74, 75, 76, 77, 78, 79, 80, 81, 82, 83, 84, 85, 86, 87, 88, 89, 90, 91, 92, 93, 94, 95, 96, 97, 98, 99, 100, 101, 102, 103, 104, 105, 106, 107, 108, 109, 110, 111, 112, 113, 114, 115, 116, 117, 118, 119, 120, 121, 122, 123, 124, 125, 126, 127, 128, 129, 130, 131, 132, 133, 134, 135, 136, 137, 138, 139, 140, 141, 142, 143, 144, 145, 146, 147, 148, 149, 150, 151, 152, 153, 154, 155, 156, 157, 158, 159, 160, 161, 162, 163, 164, 165, 166, 167, 168, 169, 170, 171, 172, 173, 174, 175, 176, 177, 178, 179, 180, 181, 182, 183, 184, 185, 186, 187, 188, 189, 190, 191, 192, 193, 194, 195, 196, 197, 198, 199, 200, 201, 202, 203, 204, 205, 206, 207, 208, 209, 210, 211, 212, 213, 214, 215, 216, 217, 218, 219, 220, 221, 222, 223, 224, 225, 226, 227, 228, 229, 230, 231, 232, 233, 234, 235, 236, 237, 238, 239, 240, 241, 242, 243, 244, 245, 246, 247, 248, 249, 250, 251, 252, 253, 254, 255, 256, 257, 258, 259, 260, 261, 262, 263, 264, 265, 266, 267, 268, 269, 270, 271, 272, 273, 274, 275, 276, 277, 278, 279, 280, 281, 282, 283, 284, 285, 286, 287, 288, 289, 290, 291, 292, 293, 294, 295, 296, 297, 298, 299, 300, 301, 302, 303, 304, 305, 306, 307, 308, 309, 310, 311, 312, 313, 314, 315, 316, 317, 318, 319, 320, 321, 322, 323, 324, 325, 326, 327, 328, 329, 330, 331, 332, 333, 334, 335, 336, 337, 338, 339, 340, 341, 342, 343, 344, 345, 346, 347, 348, 349, 350, 351, 352, 353, 354, 355, 356, 357, 358, 359, 360, 361, 362, 363, 364, 365, 366, 367, 368, 369, 370, 371, 372, 373],
