{
  "AcquisitionMatrixPE": 108,
  "AcquisitionNumber": 1,
  "AcquisitionTime": "11:22:48.152500",
  "BandwidthPerPixelPhaseEncode": 15.964,
  "BaseResolution": 108,
  "BodyPartExamined": "BRAIN",
  "ConsistencyInfo": "N4_VE11C_LATEST_20160120",
  "ConversionSoftware": "dcm2niix",
  "ConversionSoftwareVersion": "v1.0.20180622 GCC6.3.0",
  "DerivedVendorReportedEchoSpacing": 0.000580009,
  "DeviceSerialNumber": "66054",
  "DwellTime": 2.1e-06,
  "EchoTime": 0.031,
  "EchoTrainLength": 95,
  "EffectiveEchoSpacing": 0.000580009,
  "FlipAngle": 64,
  "ImageOrientationPatientDICOM": [0.99801, 0.0628264, -0.00533532, -0.061041, 0.941503, -0.331431],
  "ImageType": [
    "ORIGINAL",
    "PRIMARY",
    "M",
    "ND",
    "MOSAIC"
],
  "InPlanePhaseEncodingDirectionDICOM": "COL",
  "InstitutionAddress": "Chemin_des_Mines_9_Geneve_District_CH_1211",
  "InstitutionName": "Fondation_Campus_Biotech_Geneva",
  "InstitutionalDepartmentName": "Department",
  "MRAcquisitionType": "2D",
  "MagneticFieldStrength": 3,
  "Manufacturer": "Siemens",
  "ManufacturersModelName": "Prisma",
  "Modality": "MR",
  "MultibandAccelerationFactor": 4,
  "PartialFourier": 0.875,
  "PatientPosition": "HFS",
  "PercentPhaseFOV": 100,
  "PhaseEncodingDirection": "j-",
  "PhaseEncodingSteps": 95,
  "PhaseResolution": 1,
  "PixelBandwidth": 2205,
  "ProcedureStepDescription": "J.DRM_Michael",
  "ProtocolName": "Run1_bold_s4_TR1.28",
  "PulseSequenceDetails": "%SiemensSeq%_ep2d_bold",
  "ReceiveCoilActiveElements": "HC1-7;NC1,2",
  "ReceiveCoilName": "HeadNeck_64",
  "ReconMatrixPE": 108,
  "RepetitionTime": 1.28,
  "SAR": 0.0766253,
  "ScanOptions": "PFP_FS",
  "ScanningSequence": "EP",
  "SequenceName": "_epfid2d1_108",
  "SequenceVariant": "SK",
  "SeriesDescription": "Run1_bold_s4_TR1.28",
  "SeriesNumber": 6,
  "ShimSetting": [-1243, -11699, 6310, 626, 216, -405, 318, 6],
  "SliceThickness": 2,
  "SliceTiming": [0.945, 0, 0.63, 0.08, 0.71, 0.1575, 0.7875, 0.2375, 0.8675, 0.395, 1.025, 0.4725, 1.1025, 0.5525, 1.1825, 0.315, 0.945, 0, 0.63, 0.08, 0.71, 0.1575, 0.7875, 0.2375, 0.8675, 0.395, 1.025, 0.4725, 1.1025, 0.5525, 1.1825, 0.315, 0.945, 0, 0.63, 0.08, 0.71, 0.1575, 0.7875, 0.2375, 0.8675, 0.395, 1.025, 0.4725, 1.1025, 0.5525, 1.1825, 0.315, 0.945, 0, 0.63, 0.08, 0.71, 0.1575, 0.7875, 0.2375, 0.8675, 0.395, 1.025, 0.4725, 1.1025, 0.5525, 1.1825, 0.315],
  "SoftwareVersions": "syngo_MR_E11",
  "SpacingBetweenSlices": 2,
  "StationName": "AWP66054",
  "TaskName": "main",
  "TotalReadoutTime": 0.0620609,
  "TxRefAmp": 254.784,
  "dcmmeta_affine": [
    [-1.9867795705795288, -0.12151672691106796, 0.03159879148006439, 109.65276336669922],
    [-0.12507103383541107, 1.8742879629135132, -0.662194550037384, -61.7752685546875],
    [-0.010621241293847561, 0.6597933769226074, 1.886928677558899, -81.99578094482422],
    [0.0, 0.0, 0.0, 1.0]
],
  "dcmmeta_reorient_transform": [
    [0.0, -1.0, 0.0, 107.0],
    [1.0, 0.0, 0.0, 0.0],
    [0.0, 0.0, 1.0, 0.0],
    [0.0, 0.0, 0.0, 1.0]
],
  "dcmmeta_shape": [108, 108, 64, 373],
  "dcmmeta_slice_dim": 2,
  "dcmmeta_version": 0.6,
  "global": {
    "const": {
      "AccessionNumber": "",
      "AcquisitionMatrix": [108, 0, 0, 108],
      "AngioFlag": "N",
      "BitsAllocated": 16,
      "BitsStored": 12,
      "BodyPartExamined": "BRAIN",
      "Columns": 864,
      "EchoNumbers": 1,
      "EchoTime": 31.0,
      "EchoTrainLength": 95,
      "FlipAngle": 64.0,
      "HighBit": 11,
      "ImageOrientationPatient": [0.99801021053685, 0.0628263798997, -0.005335321254, -0.0610409595712, 0.94150275170642, -0.3314310935683],
      "ImagePositionPatient": [-801.71984728809, -894.53122547327, 242.01884112408],
      "ImageType": [
        "ORIGINAL",
        "PRIMARY",
        "M",
        "ND",
        "MOSAIC"
],
      "ImagedNucleus": "1H",
      "ImagingFrequency": 123.257492,
      "InPlanePhaseEncodingDirection": "COL",
      "MRAcquisitionType": "2D",
      "MagneticFieldStrength": 3.0,
      "Manufacturer": "SIEMENS",
      "ManufacturerModelName": "Prisma",
      "Modality": "MR",
      "NumberOfAverages": 1.0,
      "NumberOfPhaseEncodingSteps": 95,
      "PercentPhaseFieldOfView": 100.0,
      "PercentSampling": 100.0,
      "PerformedProcedureStepStartTime": "105118.909000",
      "PhotometricInterpretation": "MONOCHROME2",
      "PixelBandwidth": 2205.0,
      "PixelRepresentation": 0,
      "PixelSpacing": [1.990740776062, 1.990740776062],
      "PositionReferenceIndicator": "",
      "ProtocolName": "Run1_bold_s4_TR1.28",
      "RepetitionTime": 1280.0,
      "Rows": 864,
      "SAR": 0.07662528992787,
      "SamplesPerPixel": 1,
      "ScanOptions": [
        "PFP",
        "FS"
],
      "ScanningSequence": "EP",
      "SequenceName": "*epfid2d1_108",
      "SequenceVariant": "SK",
      "SeriesDescription": "Run1_bold_s4_TR1.28",
      "SeriesNumber": 6,
      "SeriesTime": "112325.636000",
      "SliceLocation": -55.174027165833,
      "SliceThickness": 2.0,
      "SmallestImagePixelValue": 0,
      "SoftwareVersions": "syngo MR E11",
      "SpacingBetweenSlices": 1.9999999411637,
      "SpecificCharacterSet": "ISO_IR 100",
      "StudyID": "1",
      "StudyTime": "105118.827000",
      "TransmitCoilName": "Body",
      "VariableFlipAngleFlag": "N",
      "WindowCenterWidthExplanation": "Algo1",
      "dBdt": 0.0},
    "slices": {}
  },
  "time": {
    "samples": {
      "AcquisitionNumber": [1, 2, 3, 4, 5, 6, 7, 8, 9, 10, 11, 12, 13, 14, 15, 16, 17, 18, 19, 20, 21, 22, 23, 24, 25, 26, 27, 28, 29, 30, 31, 32, 33, 34, 35, 36, 37, 38, 39, 40, 41, 42, 43, 44, 45, 46, 47, 48, 49, 50, 51, 52, 53, 54, 55, 56, 57, 58, 59, 60, 61, 62, 63, 64, 65, 66, 67, 68, 69, 70, 71, 72, 73, 74, 75, 76, 77, 78, 79, 80, 81, 82, 83, 84, 85, 86, 87, 88, 89, 90, 91, 92, 93, 94, 95, 96, 97, 98, 99, 100, 101, 102, 103, 104, 105, 106, 107, 108, 109, 110, 111, 112, 113, 114, 115, 116, 117, 118, 119, 120, 121, 122, 123, 124, 125, 126, 127, 128, 129, 130, 131, 132, 133, 134, 135, 136, 137, 138, 139, 140, 141, 142, 143, 144, 145, 146, 147, 148, 149, 150, 151, 152, 153, 154, 155, 156, 157, 158, 159, 160, 161, 162, 163, 164, 165, 166, 167, 168, 169, 170, 171, 172, 173, 174, 175, 176, 177, 178, 179, 180, 181, 182, 183, 184, 185, 186, 187, 188, 189, 190, 191, 192, 193, 194, 195, 196, 197, 198, 199, 200, 201, 202, 203, 204, 205, 206, 207, 208, 209, 210, 211, 212, 213, 214, 215, 216, 217, 218, 219, 220, 221, 222, 223, 224, 225, 226, 227, 228, 229, 230, 231, 232, 233, 234, 235, 236, 237, 238, 239, 240, 241, 242, 243, 244, 245, 246, 247, 248, 249, 250, 251, 252, 253, 254, 255, 256, 257, 258, 259, 260, 261, 262, 263, 264, 265, 266, 267, 268, 269, 270, 271, 272, 273, 274, 275, 276, 277, 278, 279, 280, 281, 282, 283, 284, 285, 286, 287, 288, 289, 290, 291, 292, 293, 294, 295, 296, 297, 298, 299, 300, 301, 302, 303, 304, 305, 306, 307, 308, 309, 310, 311, 312, 313, 314, 315, 316, 317, 318, 319, 320, 321, 322, 323, 324, 325, 326, 327, 328, 329, 330, 331, 332, 333, 334, 335, 336, 337, 338, 339, 340, 341, 342, 343, 344, 345, 346, 347, 348, 349, 350, 351, 352, 353, 354, 355, 356, 357, 358, 359, 360, 361, 362, 363, 364, 365, 366, 367, 368, 369, 370, 371, 372, 373],
      "AcquisitionTime": ["112248.152500", "112249.432500", "112250.712500", "112251.992500", "112253.272500", "112254.552500", "112255.832500", "112257.112500", "112258.392500", "112259.672500", "112300.952500", "112302.232500", "112303.512500", "112304.792500", "112306.072500", "112307.352500", "112308.632500", "112309.912500", "112311.192500", "112312.472500", "112313.752500", "112315.032500", "112316.312500", "112317.592500", "112318.872500", "112320.152500", "112321.432500", "112322.712500", "112323.992500", "112325.272500", "112326.552500", "112327.832500", "112329.112500", "112330.392500", "112331.672500", "112332.952500", "112334.232500", "112335.512500", "112336.792500", "112338.072500", "112339.352500", "112340.632500", "112341.912500", "112343.192500", "112344.472500", "112345.752500", "112347.032500", "112348.312500", "112349.592500", "112350.872500", "112352.152500", "112353.432500", "112354.712500", "112355.992500", "112357.272500", "112358.552500", "112359.832500", "112401.112500", "112402.392500", "112403.672500", "112404.952500", "112406.232500", "112407.512500", "112408.792500", "112410.072500", "112411.352500", "112412.632500", "112413.912500", "112415.192500", "112416.472500", "112417.752500", "112419.032500", "112420.312500", "112421.592500", "112422.872500", "112424.152500", "112425.432500", "112426.712500", "112427.992500", "112429.272500", "112430.552500", "112431.832500", "112433.112500", "112434.392500", "112435.672500", "112436.952500", "112438.232500", "112439.512500", "112440.792500", "112442.072500", "112443.352500", "112444.632500", "112445.912500", "112447.192500", "112448.472500", "112449.752500", "112451.032500", "112452.312500", "112453.592500", "112454.872500", "112456.152500", "112457.432500", "112458.712500", "112459.992500", "112501.272500", "112502.552500", "112503.832500", "112505.112500", "112506.392500", "112507.672500", "112508.952500", "112510.232500", "112511.512500", "112512.792500", "112514.072500", "112515.352500", "112516.632500", "112517.912500", "112519.192500", "112520.472500", "112521.752500", "112523.032500", "112524.312500", "112525.592500", "112526.872500", "112528.152500", "112529.432500", "112530.712500", "112531.992500", "112533.272500", "112534.552500", "112535.832500", "112537.112500", "112538.392500", "112539.672500", "112540.952500", "112542.232500", "112543.512500", "112544.792500", "112546.072500", "112547.352500", "112548.632500", "112549.912500", "112551.192500", "112552.472500", "112553.752500", "112555.032500", "112556.312500", "112557.592500", "112558.872500", "112600.152500", "112601.432500", "112602.712500", "112603.992500", "112605.272500", "112606.552500", "112607.832500", "112609.112500", "112610.392500", "112611.672500", "112612.952500", "112614.232500", "112615.512500", "112616.792500", "112618.072500", "112619.352500", "112620.632500", "112621.912500", "112623.192500", "112624.472500", "112625.752500", "112627.032500", "112628.312500", "112629.592500", "112630.872500", "112632.152500", "112633.432500", "112634.712500", "112635.992500", "112637.272500", "112638.552500", "112639.832500", "112641.112500", "112642.392500", "112643.672500", "112644.952500", "112646.232500", "112647.512500", "112648.792500", "112650.072500", "112651.352500", "112652.632500", "112653.912500", "112655.192500", "112656.472500", "112657.752500", "112659.032500", "112700.312500", "112701.592500", "112702.872500", "112704.152500", "112705.432500", "112706.712500", "112707.992500", "112709.272500", "112710.552500", "112711.832500", "112713.112500", "112714.392500", "112715.672500", "112716.952500", "112718.232500", "112719.512500", "112720.792500", "112722.072500", "112723.352500", "112724.632500", "112725.912500", "112727.192500", "112728.472500", "112729.752500", "112731.032500", "112732.312500", "112733.592500", "112734.872500", "112736.152500", "112737.432500", "112738.712500", "112739.992500", "112741.272500", "112742.552500", "112743.832500", "112745.112500", "112746.392500", "112747.672500", "112748.952500", "112750.232500", "112751.512500", "112752.792500", "112754.072500", "112755.352500", "112756.632500", "112757.912500", "112759.192500", "112800.472500", "112801.752500", "112803.032500", "112804.312500", "112805.592500", "112806.872500", "112808.152500", "112809.432500", "112810.712500", "112811.992500", "112813.272500", "112814.552500", "112815.832500", "112817.112500", "112818.392500", "112819.672500", "112820.952500", "112822.232500", "112823.512500", "112824.792500", "112826.072500", "112827.352500", "112828.632500", "112829.912500", "112831.192500", "112832.472500", "112833.752500", "112835.032500", "112836.312500", "112837.592500", "112838.872500", "112840.152500", "112841.432500", "112842.712500", "112843.992500", "112845.272500", "112846.552500", "112847.832500", "112849.112500", "112850.392500", "112851.672500", "112852.952500", "112854.232500", "112855.512500", "112856.792500", "112858.072500", "112859.352500", "112900.632500", "112901.912500", "112903.192500", "112904.472500", "112905.752500", "112907.032500", "112908.312500", "112909.592500", "112910.872500", "112912.152500", "112913.432500", "112914.712500", "112915.992500", "112917.272500", "112918.552500", "112919.832500", "112921.112500", "112922.392500", "112923.672500", "112924.952500", "112926.232500", "112927.512500", "112928.792500", "112930.072500", "112931.352500", "112932.632500", "112933.912500", "112935.192500", "112936.472500", "112937.752500", "112939.032500", "112940.312500", "112941.592500", "112942.872500", "112944.152500", "112945.432500", "112946.712500", "112947.992500", "112949.272500", "112950.552500", "112951.832500", "112953.112500", "112954.392500", "112955.672500", "112956.952500", "112958.232500", "112959.512500", "113000.792500", "113002.072500", "113003.352500", "113004.632500", "113005.912500", "113007.192500", "113008.472500", "113009.752500", "113011.032500", "113012.312500", "113013.592500", "113014.872500", "113016.152500", "113017.432500", "113018.712500", "113019.992500", "113021.272500", "113022.552500", "113023.832500", "113025.112500", "113026.392500", "113027.672500", "113028.952500", "113030.232500", "113031.512500", "113032.792500", "113034.072500", "113035.352500", "113036.632500", "113037.912500", "113039.192500", "113040.472500", "113041.752500", "113043.032500", "113044.312500"],
      "ContentTime": ["112325.640000", "112325.644000", "112325.647000", "112325.649000", "112325.652000", "112325.655000", "112325.658000", "112325.661000", "112325.664000", "112325.667000", "112325.670000", "112325.673000", "112325.676000", "112325.679000", "112325.682000", "112325.685000", "112325.688000", "112325.691000", "112325.694000", "112325.697000", "112325.700000", "112325.703000", "112325.706000", "112325.709000", "112325.712000", "112325.715000", "112325.718000", "112325.720000", "112325.723000", "112405.635000", "112405.638000", "112405.641000", "112405.644000", "112405.647000", "112405.650000", "112405.652000", "112405.655000", "112405.658000", "112405.661000", "112405.664000", "112405.671000", "112405.674000", "112405.677000", "112405.679000", "112405.682000", "112405.685000", "112405.688000", "112405.691000", "112405.694000", "112405.697000", "112405.700000", "112405.703000", "112405.706000", "112405.709000", "112405.712000", "112405.715000", "112405.718000", "112405.721000", "112405.724000", "112405.727000", "112445.635000", "112445.638000", "112445.641000", "112445.644000", "112445.647000", "112445.650000", "112445.653000", "112445.656000", "112445.658000", "112445.661000", "112445.664000", "112445.667000", "112445.670000", "112445.673000", "112445.676000", "112445.680000", "112445.682000", "112445.685000", "112445.688000", "112445.691000", "112445.694000", "112445.697000", "112445.700000", "112445.703000", "112445.706000", "112445.723000", "112445.726000", "112445.729000", "112445.732000", "112445.735000", "112445.738000", "112525.635000", "112525.638000", "112525.641000", "112525.644000", "112525.647000", "112525.650000", "112525.653000", "112525.656000", "112525.659000", "112525.662000", "112525.664000", "112525.667000", "112525.670000", "112525.673000", "112525.676000", "112525.679000", "112525.682000", "112525.685000", "112525.688000", "112525.700000", "112525.703000", "112525.716000", "112525.719000", "112525.722000", "112525.725000", "112525.728000", "112525.731000", "112525.734000", "112525.737000", "112525.740000", "112525.743000", "112605.636000", "112605.639000", "112605.642000", "112605.645000", "112605.648000", "112605.651000", "112605.654000", "112605.657000", "112605.660000", "112605.663000", "112605.666000", "112605.669000", "112605.672000", "112605.675000", "112605.677000", "112605.680000", "112605.683000", "112605.686000", "112605.689000", "112605.692000", "112605.695000", "112605.698000", "112605.701000", "112605.704000", "112605.707000", "112605.710000", "112605.713000", "112605.716000", "112605.719000", "112605.722000", "112605.725000", "112605.728000", "112645.635000", "112645.638000", "112645.641000", "112645.644000", "112645.647000", "112645.650000", "112645.653000", "112645.656000", "112645.659000", "112645.662000", "112645.665000", "112645.668000", "112645.671000", "112645.674000", "112645.676000", "112645.679000", "112645.682000", "112645.685000", "112645.688000", "112645.691000", "112645.694000", "112645.697000", "112645.700000", "112645.703000", "112645.706000", "112645.709000", "112645.712000", "112645.715000", "112645.718000", "112645.721000", "112645.724000", "112725.635000", "112725.638000", "112725.641000", "112725.644000", "112725.647000", "112725.650000", "112725.653000", "112725.656000", "112725.659000", "112725.662000", "112725.665000", "112725.667000", "112725.670000", "112725.673000", "112725.677000", "112725.680000", "112725.682000", "112725.685000", "112725.688000", "112725.691000", "112725.694000", "112725.697000", "112725.700000", "112725.703000", "112725.706000", "112725.709000", "112725.712000", "112725.715000", "112725.718000", "112725.721000", "112725.724000", "112805.635000", "112805.638000", "112805.641000", "112805.654000", "112805.657000", "112805.660000", "112805.663000", "112805.666000", "112805.669000", "112805.672000", "112805.675000", "112805.678000", "112805.681000", "112805.684000", "112805.687000", "112805.691000", "112805.694000", "112805.697000", "112805.700000", "112805.702000", "112805.705000", "112805.709000", "112805.712000", "112805.714000", "112805.717000", "112805.720000", "112805.723000", "112805.726000", "112805.729000", "112805.732000", "112805.735000", "112845.635000", "112845.638000", "112845.646000", "112845.649000", "112845.652000", "112845.655000", "112845.658000", "112845.661000", "112845.664000", "112845.667000", "112845.670000", "112845.673000", "112845.676000", "112845.679000", "112845.682000", "112845.685000", "112845.688000", "112845.691000", "112845.694000", "112845.697000", "112845.700000", "112845.703000", "112845.705000", "112845.708000", "112845.711000", "112845.714000", "112845.717000", "112845.720000", "112845.723000", "112845.726000", "112845.729000", "112845.732000", "112925.635000", "112925.638000", "112925.641000", "112925.644000", "112925.647000", "112925.650000", "112925.653000", "112925.656000", "112925.659000", "112925.662000", "112925.665000", "112925.668000", "112925.689000", "112925.692000", "112925.695000", "112925.698000", "112925.701000", "112925.704000", "112925.707000", "112925.710000", "112925.714000", "112925.717000", "112925.720000", "112925.722000", "112925.726000", "112925.729000", "112925.732000", "112925.735000", "112925.737000", "112925.740000", "112925.743000", "113005.635000", "113005.638000", "113005.641000", "113005.644000", "113005.647000", "113005.650000", "113005.653000", "113005.656000", "113005.659000", "113005.662000", "113005.665000", "113005.668000", "113005.671000", "113005.674000", "113005.677000", "113005.680000", "113005.683000", "113005.686000", "113005.689000", "113005.692000", "113005.695000", "113005.698000", "113005.701000", "113005.704000", "113005.706000", "113005.709000", "113005.712000", "113005.715000", "113005.718000", "113005.721000", "113005.724000", "113045.635000", "113045.639000", "113045.642000", "113045.645000", "113045.654000", "113045.658000", "113045.661000", "113045.665000", "113045.668000", "113045.671000", "113045.674000", "113045.678000", "113045.681000", "113045.684000", "113045.687000", "113045.690000", "113045.693000", "113045.696000", "113045.699000", "113045.703000", "113045.706000", "113045.709000", "113045.712000", "113045.715000", "113045.718000", "113045.721000", "113045.724000", "113045.727000", "113045.730000", "113045.733000", "113045.736000", "113045.794000"],
      "InstanceCreationTime": ["112325.640000", "112325.644000", "112325.647000", "112325.649000", "112325.652000", "112325.655000", "112325.658000", "112325.661000", "112325.664000", "112325.667000", "112325.670000", "112325.673000", "112325.676000", "112325.679000", "112325.682000", "112325.685000", "112325.688000", "112325.691000", "112325.694000", "112325.697000", "112325.700000", "112325.703000", "112325.706000", "112325.709000", "112325.712000", "112325.715000", "112325.718000", "112325.720000", "112325.723000", "112405.635000", "112405.638000", "112405.641000", "112405.644000", "112405.647000", "112405.650000", "112405.652000", "112405.655000", "112405.658000", "112405.661000", "112405.664000", "112405.671000", "112405.674000", "112405.677000", "112405.679000", "112405.682000", "112405.685000", "112405.688000", "112405.691000", "112405.694000", "112405.697000", "112405.700000", "112405.703000", "112405.706000", "112405.709000", "112405.712000", "112405.715000", "112405.718000", "112405.721000", "112405.724000", "112405.727000", "112445.635000", "112445.638000", "112445.641000", "112445.644000", "112445.647000", "112445.650000", "112445.653000", "112445.656000", "112445.658000", "112445.661000", "112445.664000", "112445.667000", "112445.670000", "112445.673000", "112445.676000", "112445.680000", "112445.682000", "112445.685000", "112445.688000", "112445.691000", "112445.694000", "112445.697000", "112445.700000", "112445.703000", "112445.706000", "112445.723000", "112445.726000", "112445.729000", "112445.732000", "112445.735000", "112445.738000", "112525.635000", "112525.638000", "112525.641000", "112525.644000", "112525.647000", "112525.650000", "112525.653000", "112525.656000", "112525.659000", "112525.662000", "112525.664000", "112525.667000", "112525.670000", "112525.673000", "112525.676000", "112525.679000", "112525.682000", "112525.685000", "112525.688000", "112525.700000", "112525.703000", "112525.716000", "112525.719000", "112525.722000", "112525.725000", "112525.728000", "112525.731000", "112525.734000", "112525.737000", "112525.740000", "112525.743000", "112605.636000", "112605.639000", "112605.642000", "112605.645000", "112605.648000", "112605.651000", "112605.654000", "112605.657000", "112605.660000", "112605.663000", "112605.666000", "112605.669000", "112605.672000", "112605.675000", "112605.677000", "112605.680000", "112605.683000", "112605.686000", "112605.689000", "112605.692000", "112605.695000", "112605.698000", "112605.701000", "112605.704000", "112605.707000", "112605.710000", "112605.713000", "112605.716000", "112605.719000", "112605.722000", "112605.725000", "112605.728000", "112645.635000", "112645.638000", "112645.641000", "112645.644000", "112645.647000", "112645.650000", "112645.653000", "112645.656000", "112645.659000", "112645.662000", "112645.665000", "112645.668000", "112645.671000", "112645.674000", "112645.676000", "112645.679000", "112645.682000", "112645.685000", "112645.688000", "112645.691000", "112645.694000", "112645.697000", "112645.700000", "112645.703000", "112645.706000", "112645.709000", "112645.712000", "112645.715000", "112645.718000", "112645.721000", "112645.724000", "112725.635000", "112725.638000", "112725.641000", "112725.644000", "112725.647000", "112725.650000", "112725.653000", "112725.656000", "112725.659000", "112725.662000", "112725.665000", "112725.667000", "112725.670000", "112725.673000", "112725.677000", "112725.680000", "112725.682000", "112725.685000", "112725.688000", "112725.691000", "112725.694000", "112725.697000", "112725.700000", "112725.703000", "112725.706000", "112725.709000", "112725.712000", "112725.715000", "112725.718000", "112725.721000", "112725.724000", "112805.635000", "112805.638000", "112805.641000", "112805.654000", "112805.657000", "112805.660000", "112805.663000", "112805.666000", "112805.669000", "112805.672000", "112805.675000", "112805.678000", "112805.681000", "112805.684000", "112805.687000", "112805.691000", "112805.694000", "112805.697000", "112805.700000", "112805.702000", "112805.705000", "112805.709000", "112805.712000", "112805.714000", "112805.717000", "112805.720000", "112805.723000", "112805.726000", "112805.729000", "112805.732000", "112805.735000", "112845.635000", "112845.638000", "112845.646000", "112845.649000", "112845.652000", "112845.655000", "112845.658000", "112845.661000", "112845.664000", "112845.667000", "112845.670000", "112845.673000", "112845.676000", "112845.679000", "112845.682000", "112845.685000", "112845.688000", "112845.691000", "112845.694000", "112845.697000", "112845.700000", "112845.703000", "112845.705000", "112845.708000", "112845.711000", "112845.714000", "112845.717000", "112845.720000", "112845.723000", "112845.726000", "112845.729000", "112845.732000", "112925.635000", "112925.638000", "112925.641000", "112925.644000", "112925.647000", "112925.650000", "112925.653000", "112925.656000", "112925.659000", "112925.662000", "112925.665000", "112925.668000", "112925.689000", "112925.692000", "112925.695000", "112925.698000", "112925.701000", "112925.704000", "112925.707000", "112925.710000", "112925.714000", "112925.717000", "112925.720000", "112925.722000", "112925.726000", "112925.729000", "112925.732000", "112925.735000", "112925.737000", "112925.740000", "112925.743000", "113005.635000", "113005.638000", "113005.641000", "113005.644000", "113005.647000", "113005.650000", "113005.653000", "113005.656000", "113005.659000", "113005.662000", "113005.665000", "113005.668000", "113005.671000", "113005.674000", "113005.677000", "113005.680000", "113005.683000", "113005.686000", "113005.689000", "113005.692000", "113005.695000", "113005.698000", "113005.701000", "113005.704000", "113005.706000", "113005.709000", "113005.712000", "113005.715000", "113005.718000", "113005.721000", "113005.724000", "113045.635000", "113045.639000", "113045.642000", "113045.645000", "113045.654000", "113045.658000", "113045.661000", "113045.665000", "113045.668000", "113045.671000", "113045.674000", "113045.678000", "113045.681000", "113045.684000", "113045.687000", "113045.690000", "113045.693000", "113045.696000", "113045.699000", "113045.703000", "113045.706000", "113045.709000", "113045.712000", "113045.715000", "113045.718000", "113045.721000", "113045.724000", "113045.727000", "113045.730000", "113045.733000", "113045.736000", "113045.794000"],
      "InstanceNumber": [1, 2, 3, 4, 5, 6, 7, 8, 9, 10, 11, 12, 13, 14, 15, 16, 17, 18, 19, 20, 21, 22, 23, 24, 25, 26, 27, 28, 29, 30, 31, 32, 33, 34, 35, 36, 37, 38, 39, 40, 41, 42, 43, 44, 45, 46, 47, 48, 49, 50, 51, 52, 53, 54, 55, 56, 57, 58, 59, 60, 61, 62, 63, 64, 65, 66, 67, 68, 69, 70, 71, 72, 73, 74, 75, 76, 77, 78, 79, 80, 81, 82, 83, 84, 85, 86, 87, 88, 89, 90, 91, 92, 93, 94, 95, 96, 97, 98, 99, 100, 101, 102, 103, 104, 105, 106, 107, 108, 109, 110, 111, 112, 113, 114, 115, 116, 117, 118, 119, 120, 121, 122, 123, 124, 125, 126, 127, 128, 129, 130, 131, 132, 133, 134, 135, 136, 137, 138, 139, 140, 141, 142, 143, 144, 145, 146, 147, 148, 149, 150, 151, 152, 153, 154, 155, 156, 157, 158, 159, 160, 161, 162, 163, 164, 165, 166, 167, 168, 169, 170, 171, 172, 173, 174, 175, 176, 177, 178, 179, 180, 181, 182, 183, 184, 185, 186, 187, 188, 189, 190, 191, 192, 193, 194, 195, 196, 197, 198, 199, 200, 201, 202, 203, 204, 205, 206, 207, 208, 209, 210, 211, 212, 213, 214, 215, 216, 217, 218, 219, 220, 221, 222, 223, 224, 225, 226, 227, 228, 229, 230, 231, 232, 233, 234, 235, 236, 237, 238, 239, 240, 241, 242, 243, 244, 245, 246, 247, 248, 249, 250, 251, 252, 253, 254, 255, 256, 257, 258, 259, 260, 261, 262, 263, 264, 265, 266, 267, 268, 269, 270, 271, 272, 273, 274, 275, 276, 277, 278, 279, 280, 281, 282, 283, 284, 285, 286, 287, 288, 289, 290, 291, 292, 293, 294, 295, 296, 297, 298, 299, 300, 301, 302, 303, 304, 305, 306, 307, 308, 309, 310, 311, 312, 313, 314, 315, 316, 317, 318, 319, 320, 321, 322, 323, 324, 325, 326, 327, 328, 329, 330, 331, 332, 333, 334, 335, 336, 337, 338, 339, 340, 341, 342, 343, 344, 345, 346, 347, 348, 349, 350, 351, 352, 353, 354, 355, 356, 357, 358, 359, 360, 361, 362, 363, 364, 365, 366, 367, 368, 369, 370, 371, 372, 373],
