{
  "AcquisitionMatrixPE": 108,
  "AcquisitionNumber": 1,
  "AcquisitionTime": "12:01:45.845000",
  "BandwidthPerPixelPhaseEncode": 15.964,
  "BaseResolution": 108,
  "BodyPartExamined": "BRAIN",
  "ConsistencyInfo": "N4_VE11C_LATEST_20160120",
  "ConversionSoftware": "dcm2niix",
  "ConversionSoftwareVersion": "v1.0.20180622 GCC6.3.0",
  "DerivedVendorReportedEchoSpacing": 0.000580009,
  "DeviceSerialNumber": "66054",
  "DwellTime": 2.1e-06,
  "EchoTime": 0.031,
  "EchoTrainLength": 95,
  "EffectiveEchoSpacing": 0.000580009,
  "FlipAngle": 64,
  "ImageOrientationPatientDICOM": [0.99801, 0.0628264, -0.00533532, -0.061041, 0.941503, -0.331431],
  "ImageType": [
    "ORIGINAL",
    "PRIMARY",
    "M",
    "ND",
    "MOSAIC"
],
  "InPlanePhaseEncodingDirectionDICOM": "COL",
  "InstitutionAddress": "Chemin_des_Mines_9_Geneve_District_CH_1211",
  "InstitutionName": "Fondation_Campus_Biotech_Geneva",
  "InstitutionalDepartmentName": "Department",
  "MRAcquisitionType": "2D",
  "MagneticFieldStrength": 3,
  "Manufacturer": "Siemens",
  "ManufacturersModelName": "Prisma",
  "Modality": "MR",
  "MultibandAccelerationFactor": 4,
  "PartialFourier": 0.875,
  "PatientPosition": "HFS",
  "PercentPhaseFOV": 100,
  "PhaseEncodingDirection": "j-",
  "PhaseEncodingSteps": 95,
  "PhaseResolution": 1,
  "PixelBandwidth": 2205,
  "ProcedureStepDescription": "J.DRM_Michael",
  "ProtocolName": "Rest_bold_s4_TR1.28",
  "PulseSequenceDetails": "%SiemensSeq%_ep2d_bold",
  "ReceiveCoilActiveElements": "HC1-7;NC1,2",
  "ReceiveCoilName": "HeadNeck_64",
  "ReconMatrixPE": 108,
  "RepetitionTime": 1.28,
  "SAR": 0.0764115,
  "ScanOptions": "PFP_FS",
  "ScanningSequence": "EP",
  "SequenceName": "_epfid2d1_108",
  "SequenceVariant": "SK",
  "SeriesDescription": "Rest_bold_s4_TR1.28",
  "SeriesNumber": 12,
  "ShimSetting": [-1243, -11699, 6310, 626, 216, -405, 318, 6],
  "SliceThickness": 2,
  "SliceTiming": [0.945, 0, 0.63, 0.0775, 0.7075, 0.1575, 0.7875, 0.235, 0.865, 0.3925, 1.0225, 0.4725, 1.1025, 0.55, 1.18, 0.315, 0.945, 0, 0.63, 0.0775, 0.7075, 0.1575, 0.7875, 0.235, 0.865, 0.3925, 1.0225, 0.4725, 1.1025, 0.55, 1.18, 0.315, 0.945, 0, 0.63, 0.0775, 0.7075, 0.1575, 0.7875, 0.235, 0.865, 0.3925, 1.0225, 0.4725, 1.1025, 0.55, 1.18, 0.315, 0.945, 0, 0.63, 0.0775, 0.7075, 0.1575, 0.7875, 0.235, 0.865, 0.3925, 1.0225, 0.4725, 1.1025, 0.55, 1.18, 0.315],
  "SoftwareVersions": "syngo_MR_E11",
  "SpacingBetweenSlices": 2,
  "StationName": "AWP66054",
  "TaskName": "rest",
  "TotalReadoutTime": 0.0620609,
  "TxRefAmp": 254.784,
  "dcmmeta_affine": [
    [-1.9867795705795288, -0.12151672691106796, 0.03159879148006439, 109.65276336669922],
    [-0.12507103383541107, 1.8742879629135132, -0.662194550037384, -61.7752685546875],
    [-0.010621241293847561, 0.6597933769226074, 1.886928677558899, -81.99578094482422],
    [0.0, 0.0, 0.0, 1.0]
],
  "dcmmeta_reorient_transform": [
    [0.0, -1.0, 0.0, 107.0],
    [1.0, 0.0, 0.0, 0.0],
    [0.0, 0.0, 1.0, 0.0],
    [0.0, 0.0, 0.0, 1.0]
],
  "dcmmeta_shape": [108, 108, 64, 250],
  "dcmmeta_slice_dim": 2,
  "dcmmeta_version": 0.6,
  "global": {
    "const": {
      "AccessionNumber": "",
      "AcquisitionMatrix": [108, 0, 0, 108],
      "AngioFlag": "N",
      "BitsAllocated": 16,
      "BitsStored": 12,
      "BodyPartExamined": "BRAIN",
      "Columns": 864,
      "EchoNumbers": 1,
      "EchoTime": 31.0,
      "EchoTrainLength": 95,
      "FlipAngle": 64.0,
      "HighBit": 11,
      "ImageOrientationPatient": [0.99801021053685, 0.0628263798997, -0.005335321254, -0.0610409595712, 0.94150275170642, -0.3314310935683],
      "ImagePositionPatient": [-801.71984728809, -894.53122547327, 242.01884112408],
      "ImageType": [
        "ORIGINAL",
        "PRIMARY",
        "M",
        "ND",
        "MOSAIC"
],
      "ImagedNucleus": "1H",
      "ImagingFrequency": 123.257521,
      "InPlanePhaseEncodingDirection": "COL",
      "MRAcquisitionType": "2D",
      "MagneticFieldStrength": 3.0,
      "Manufacturer": "SIEMENS",
      "ManufacturerModelName": "Prisma",
      "Modality": "MR",
      "NumberOfAverages": 1.0,
      "NumberOfPhaseEncodingSteps": 95,
      "PercentPhaseFieldOfView": 100.0,
      "PercentSampling": 100.0,
      "PerformedProcedureStepStartTime": "105118.909000",
      "PhotometricInterpretation": "MONOCHROME2",
      "PixelBandwidth": 2205.0,
      "PixelRepresentation": 0,
      "PixelSpacing": [1.990740776062, 1.990740776062],
      "PositionReferenceIndicator": "",
      "ProtocolName": "Rest_bold_s4_TR1.28",
      "RepetitionTime": 1280.0,
      "Rows": 864,
      "SAR": 0.07641150017656,
      "SamplesPerPixel": 1,
      "ScanOptions": [
        "PFP",
        "FS"
],
      "ScanningSequence": "EP",
      "SequenceName": "*epfid2d1_108",
      "SequenceVariant": "SK",
      "SeriesDescription": "Rest_bold_s4_TR1.28",
      "SeriesNumber": 12,
      "SeriesTime": "120225.797000",
      "SliceLocation": -55.174027165833,
      "SliceThickness": 2.0,
      "SmallestImagePixelValue": 0,
      "SoftwareVersions": "syngo MR E11",
      "SpacingBetweenSlices": 1.9999999411637,
      "SpecificCharacterSet": "ISO_IR 100",
      "StudyID": "1",
      "StudyTime": "105118.827000",
      "TransmitCoilName": "Body",
      "VariableFlipAngleFlag": "N",
      "WindowCenterWidthExplanation": "Algo1",
      "dBdt": 0.0},
    "slices": {}
  },
  "time": {
    "samples": {
      "AcquisitionNumber": [1, 2, 3, 4, 5, 6, 7, 8, 9, 10, 11, 12, 13, 14, 15, 16, 17, 18, 19, 20, 21, 22, 23, 24, 25, 26, 27, 28, 29, 30, 31, 32, 33, 34, 35, 36, 37, 38, 39, 40, 41, 42, 43, 44, 45, 46, 47, 48, 49, 50, 51, 52, 53, 54, 55, 56, 57, 58, 59, 60, 61, 62, 63, 64, 65, 66, 67, 68, 69, 70, 71, 72, 73, 74, 75, 76, 77, 78, 79, 80, 81, 82, 83, 84, 85, 86, 87, 88, 89, 90, 91, 92, 93, 94, 95, 96, 97, 98, 99, 100, 101, 102, 103, 104, 105, 106, 107, 108, 109, 110, 111, 112, 113, 114, 115, 116, 117, 118, 119, 120, 121, 122, 123, 124, 125, 126, 127, 128, 129, 130, 131, 132, 133, 134, 135, 136, 137, 138, 139, 140, 141, 142, 143, 144, 145, 146, 147, 148, 149, 150, 151, 152, 153, 154, 155, 156, 157, 158, 159, 160, 161, 162, 163, 164, 165, 166, 167, 168, 169, 170, 171, 172, 173, 174, 175, 176, 177, 178, 179, 180, 181, 182, 183, 184, 185, 186, 187, 188, 189, 190, 191, 192, 193, 194, 195, 196, 197, 198, 199, 200, 201, 202, 203, 204, 205, 206, 207, 208, 209, 210, 211, 212, 213, 214, 215, 216, 217, 218, 219, 220, 221, 222, 223, 224, 225, 226, 227, 228, 229, 230, 231, 232, 233, 234, 235, 236, 237, 238, 239, 240, 241, 242, 243, 244, 245, 246, 247, 248, 249, 250],
      "AcquisitionTime": ["120145.845000", "120147.125000", "120148.405000", "120149.685000", "120150.965000", "120152.245000", "120153.525000", "120154.805000", "120156.085000", "120157.365000", "120158.645000", "120159.925000", "120201.205000", "120202.485000", "120203.765000", "120205.045000", "120206.325000", "120207.605000", "120208.885000", "120210.165000", "120211.445000", "120212.725000", "120214.005000", "120215.285000", "120216.565000", "120217.845000", "120219.125000", "120220.405000", "120221.685000", "120222.965000", "120224.245000", "120225.525000", "120226.805000", "120228.085000", "120229.365000", "120230.645000", "120231.925000", "120233.205000", "120234.485000", "120235.765000", "120237.045000", "120238.325000", "120239.605000", "120240.885000", "120242.165000", "120243.445000", "120244.725000", "120246.005000", "120247.285000", "120248.565000", "120249.845000", "120251.125000", "120252.405000", "120253.685000", "120254.965000", "120256.245000", "120257.525000", "120258.805000", "120300.085000", "120301.365000", "120302.645000", "120303.925000", "120305.205000", "120306.485000", "120307.765000", "120309.045000", "120310.325000", "120311.605000", "120312.885000", "120314.165000", "120315.445000", "120316.725000", "120318.005000", "120319.285000", "120320.565000", "120321.845000", "120323.125000", "120324.405000", "120325.685000", "120326.965000", "120328.245000", "120329.525000", "120330.805000", "120332.085000", "120333.365000", "120334.645000", "120335.925000", "120337.205000", "120338.485000", "120339.765000", "120341.045000", "120342.325000", "120343.605000", "120344.885000", "120346.165000", "120347.445000", "120348.725000", "120350.005000", "120351.285000", "120352.565000", "120353.845000", "120355.125000", "120356.405000", "120357.685000", "120358.965000", "120400.245000", "120401.525000", "120402.805000", "120404.085000", "120405.365000", "120406.645000", "120407.925000", "120409.205000", "120410.485000", "120411.765000", "120413.045000", "120414.325000", "120415.605000", "120416.885000", "120418.165000", "120419.445000", "120420.725000", "120422.005000", "120423.285000", "120424.565000", "120425.845000", "120427.125000", "120428.405000", "120429.685000", "120430.965000", "120432.245000", "120433.525000", "120434.805000", "120436.085000", "120437.365000", "120438.645000", "120439.925000", "120441.205000", "120442.485000", "120443.765000", "120445.045000", "120446.325000", "120447.605000", "120448.885000", "120450.165000", "120451.445000", "120452.725000", "120454.005000", "120455.285000", "120456.565000", "120457.845000", "120459.125000", "120500.405000", "120501.685000", "120502.965000", "120504.245000", "120505.525000", "120506.805000", "120508.085000", "120509.365000", "120510.645000", "120511.925000", "120513.205000", "120514.485000", "120515.765000", "120517.045000", "120518.325000", "120519.605000", "120520.885000", "120522.165000", "120523.445000", "120524.725000", "120526.005000", "120527.285000", "120528.565000", "120529.845000", "120531.125000", "120532.405000", "120533.685000", "120534.965000", "120536.245000", "120537.525000", "120538.805000", "120540.085000", "120541.365000", "120542.645000", "120543.925000", "120545.205000", "120546.485000", "120547.765000", "120549.045000", "120550.325000", "120551.605000", "120552.885000", "120554.165000", "120555.445000", "120556.725000", "120558.005000", "120559.285000", "120600.565000", "120601.845000", "120603.125000", "120604.405000", "120605.685000", "120606.965000", "120608.245000", "120609.525000", "120610.805000", "120612.085000", "120613.365000", "120614.645000", "120615.925000", "120617.205000", "120618.485000", "120619.765000", "120621.045000", "120622.325000", "120623.605000", "120624.885000", "120626.165000", "120627.445000", "120628.725000", "120630.005000", "120631.285000", "120632.565000", "120633.845000", "120635.125000", "120636.405000", "120637.685000", "120638.965000", "120640.245000", "120641.525000", "120642.805000", "120644.085000", "120645.365000", "120646.645000", "120647.925000", "120649.205000", "120650.485000", "120651.765000", "120653.045000", "120654.325000", "120655.605000", "120656.885000", "120658.165000", "120659.445000", "120700.725000", "120702.005000", "120703.285000", "120704.565000"],
      "ContentTime": ["120225.802000", "120225.812000", "120225.815000", "120225.818000", "120225.821000", "120225.827000", "120225.830000", "120225.833000", "120225.836000", "120225.839000", "120225.842000", "120225.853000", "120225.856000", "120225.859000", "120225.862000", "120225.865000", "120225.867000", "120225.871000", "120225.873000", "120225.882000", "120225.885000", "120225.888000", "120225.891000", "120225.894000", "120225.897000", "120225.901000", "120225.904000", "120225.906000", "120225.909000", "120225.913000", "120225.916000", "120305.795000", "120305.799000", "120305.802000", "120305.805000", "120305.808000", "120305.811000", "120305.814000", "120305.817000", "120305.820000", "120305.823000", "120305.826000", "120305.829000", "120305.832000", "120305.835000", "120305.838000", "120305.841000", "120305.844000", "120305.847000", "120305.850000", "120305.853000", "120305.861000", "120305.865000", "120305.868000", "120305.871000", "120305.874000", "120305.877000", "120305.880000", "120305.883000", "120305.886000", "120305.889000", "120305.892000", "120345.795000", "120345.799000", "120345.802000", "120345.805000", "120345.808000", "120345.811000", "120345.814000", "120345.816000", "120345.819000", "120345.822000", "120345.825000", "120345.828000", "120345.831000", "120345.834000", "120345.838000", "120345.841000", "120345.843000", "120345.846000", "120345.849000", "120345.852000", "120345.861000", "120345.863000", "120345.867000", "120345.869000", "120345.872000", "120345.875000", "120345.878000", "120345.881000", "120345.884000", "120345.887000", "120345.890000", "120425.795000", "120425.799000", "120425.802000", "120425.805000", "120425.807000", "120425.810000", "120425.813000", "120425.816000", "120425.819000", "120425.833000", "120425.836000", "120425.839000", "120425.850000", "120425.853000", "120425.856000", "120425.859000", "120425.861000", "120425.865000", "120425.867000", "120425.870000", "120425.873000", "120425.876000", "120425.879000", "120425.882000", "120425.885000", "120425.888000", "120425.891000", "120425.894000", "120425.897000", "120425.900000", "120425.903000", "120505.795000", "120505.799000", "120505.802000", "120505.805000", "120505.808000", "120505.811000", "120505.814000", "120505.817000", "120505.820000", "120505.823000", "120505.826000", "120505.829000", "120505.836000", "120505.839000", "120505.842000", "120505.845000", "120505.848000", "120505.851000", "120505.854000", "120505.857000", "120505.860000", "120505.863000", "120505.866000", "120505.869000", "120505.872000", "120505.875000", "120505.878000", "120505.881000", "120505.884000", "120505.887000", "120505.890000", "120505.893000", "120545.795000", "120545.799000", "120545.802000", "120545.804000", "120545.808000", "120545.810000", "120545.813000", "120545.816000", "120545.819000", "120545.822000", "120545.825000", "120545.828000", "120545.831000", "120545.834000", "120545.837000", "120545.840000", "120545.843000", "120545.846000", "120545.849000", "120545.852000", "120545.855000", "120545.864000", "120545.868000", "120545.871000", "120545.874000", "120545.877000", "120545.880000", "120545.883000", "120545.886000", "120545.889000", "120545.892000", "120625.795000", "120625.799000", "120625.802000", "120625.805000", "120625.808000", "120625.811000", "120625.814000", "120625.817000", "120625.820000", "120625.823000", "120625.825000", "120625.829000", "120625.832000", "120625.835000", "120625.838000", "120625.841000", "120625.844000", "120625.847000", "120625.850000", "120625.853000", "120625.855000", "120625.858000", "120625.861000", "120625.864000", "120625.867000", "120625.870000", "120625.873000", "120625.876000", "120625.879000", "120625.882000", "120625.885000", "120705.795000", "120705.799000", "120705.807000", "120705.811000", "120705.814000", "120705.817000", "120705.820000", "120705.823000", "120705.826000", "120705.829000", "120705.833000", "120705.836000", "120705.839000", "120705.842000", "120705.845000", "120705.848000", "120705.851000", "120705.854000", "120705.858000", "120705.861000", "120705.866000", "120705.870000", "120705.873000", "120705.876000", "120705.880000", "120705.882000", "120705.886000", "120705.889000", "120705.891000", "120705.894000", "120705.897000", "120705.969000"],
      "InstanceCreationTime": ["120225.802000", "120225.812000", "120225.815000", "120225.818000", "120225.821000", "120225.827000", "120225.830000", "120225.833000", "120225.836000", "120225.839000", "120225.842000", "120225.853000", "120225.856000", "120225.859000", "120225.862000", "120225.865000", "120225.867000", "120225.871000", "120225.873000", "120225.882000", "120225.885000", "120225.888000", "120225.891000", "120225.894000", "120225.897000", "120225.901000", "120225.904000", "120225.906000", "120225.909000", "120225.913000", "120225.916000", "120305.795000", "120305.799000", "120305.802000", "120305.805000", "120305.808000", "120305.811000", "120305.814000", "120305.817000", "120305.820000", "120305.823000", "120305.826000", "120305.829000", "120305.832000", "120305.835000", "120305.838000", "120305.841000", "120305.844000", "120305.847000", "120305.850000", "120305.853000", "120305.861000", "120305.865000", "120305.868000", "120305.871000", "120305.874000", "120305.877000", "120305.880000", "120305.883000", "120305.886000", "120305.889000", "120305.892000", "120345.795000", "120345.799000", "120345.802000", "120345.805000", "120345.808000", "120345.811000", "120345.814000", "120345.816000", "120345.819000", "120345.822000", "120345.825000", "120345.828000", "120345.831000", "120345.834000", "120345.838000", "120345.841000", "120345.843000", "120345.846000", "120345.849000", "120345.852000", "120345.861000", "120345.863000", "120345.867000", "120345.869000", "120345.872000", "120345.875000", "120345.878000", "120345.881000", "120345.884000", "120345.887000", "120345.890000", "120425.795000", "120425.799000", "120425.802000", "120425.805000", "120425.807000", "120425.810000", "120425.813000", "120425.816000", "120425.819000", "120425.833000", "120425.836000", "120425.839000", "120425.850000", "120425.853000", "120425.856000", "120425.859000", "120425.861000", "120425.865000", "120425.867000", "120425.870000", "120425.873000", "120425.876000", "120425.879000", "120425.882000", "120425.885000", "120425.888000", "120425.891000", "120425.894000", "120425.897000", "120425.900000", "120425.903000", "120505.795000", "120505.799000", "120505.802000", "120505.805000", "120505.808000", "120505.811000", "120505.814000", "120505.817000", "120505.820000", "120505.823000", "120505.826000", "120505.829000", "120505.836000", "120505.839000", "120505.842000", "120505.845000", "120505.848000", "120505.851000", "120505.854000", "120505.857000", "120505.860000", "120505.863000", "120505.866000", "120505.869000", "120505.872000", "120505.875000", "120505.878000", "120505.881000", "120505.884000", "120505.887000", "120505.890000", "120505.893000", "120545.795000", "120545.799000", "120545.802000", "120545.804000", "120545.808000", "120545.810000", "120545.813000", "120545.816000", "120545.819000", "120545.822000", "120545.825000", "120545.828000", "120545.831000", "120545.834000", "120545.837000", "120545.840000", "120545.843000", "120545.846000", "120545.849000", "120545.852000", "120545.855000", "120545.864000", "120545.868000", "120545.871000", "120545.874000", "120545.877000", "120545.880000", "120545.883000", "120545.886000", "120545.889000", "120545.892000", "120625.795000", "120625.799000", "120625.802000", "120625.805000", "120625.808000", "120625.811000", "120625.814000", "120625.817000", "120625.820000", "120625.823000", "120625.825000", "120625.829000", "120625.832000", "120625.835000", "120625.838000", "120625.841000", "120625.844000", "120625.847000", "120625.850000", "120625.853000", "120625.855000", "120625.858000", "120625.861000", "120625.864000", "120625.867000", "120625.870000", "120625.873000", "120625.876000", "120625.879000", "120625.882000", "120625.885000", "120705.795000", "120705.799000", "120705.807000", "120705.811000", "120705.814000", "120705.817000", "120705.820000", "120705.823000", "120705.826000", "120705.829000", "120705.833000", "120705.836000", "120705.839000", "120705.842000", "120705.845000", "120705.848000", "120705.851000", "120705.854000", "120705.858000", "120705.861000", "120705.866000", "120705.870000", "120705.873000", "120705.876000", "120705.880000", "120705.882000", "120705.886000", "120705.889000", "120705.891000", "120705.894000", "120705.897000", "120705.969000"],
      "InstanceNumber": [1, 2, 3, 4, 5, 6, 7, 8, 9, 10, 11, 12, 13, 14, 15, 16, 17, 18, 19, 20, 21, 22, 23, 24, 25, 26, 27, 28, 29, 30, 31, 32, 33, 34, 35, 36, 37, 38, 39, 40, 41, 42, 43, 44, 45, 46, 47, 48, 49, 50, 51, 52, 53, 54, 55, 56, 57, 58, 59, 60, 61, 62, 63, 64, 65, 66, 67, 68, 69, 70, 71, 72, 73, 74, 75, 76, 77, 78, 79, 80, 81, 82, 83, 84, 85, 86, 87, 88, 89, 90, 91, 92, 93, 94, 95, 96, 97, 98, 99, 100, 101, 102, 103, 104, 105, 106, 107, 108, 109, 110, 111, 112, 113, 114, 115, 116, 117, 118, 119, 120, 121, 122, 123, 124, 125, 126, 127, 128, 129, 130, 131, 132, 133, 134, 135, 136, 137, 138, 139, 140, 141, 142, 143, 144, 145, 146, 147, 148, 149, 150, 151, 152, 153, 154, 155, 156, 157, 158, 159, 160, 161, 162, 163, 164, 165, 166, 167, 168, 169, 170, 171, 172, 173, 174, 175, 176, 177, 178, 179, 180, 181, 182, 183, 184, 185, 186, 187, 188, 189, 190, 191, 192, 193, 194, 195, 196, 197, 198, 199, 200, 201, 202, 203, 204, 205, 206, 207, 208, 209, 210, 211, 212, 213, 214, 215, 216, 217, 218, 219, 220, 221, 222, 223, 224, 225, 226, 227, 228, 229, 230, 231, 232, 233, 234, 235, 236, 237, 238, 239, 240, 241, 242, 243, 244, 245, 246, 247, 248, 249, 250],
      "LargestImagePixelValue": [2310, 2207, 2166, 2167, 2151, 2138, 2143, 2099, 2154, 2448, 2314, 2145, 2126, 2052, 2149, 2049, 2096, 2118, 2074, 2082, 2078, 2084, 2144, 2136, 2124, 2111, 2097, 2293, 2125, 2268, 2112, 2140, 2143, 2091, 2068, 2122, 2103, 2091, 2089, 2100, 2125, 2150, 2125, 2117, 2153, 2113, 2087, 2117, 2107, 2096, 2137, 2116, 2077, 2132, 2102, 2107, 2514, 2090, 2172, 2141, 2260, 2146, 2134, 2122, 2159, 2094, 2142, 2150, 2124, 2152, 2182, 2147, 2135, 2141, 2118, 2211, 2244, 2456, 2554, 2399, 2088, 2119, 2150, 2077, 2125, 2162, 2091, 2123, 2149, 2149, 2135, 2163, 2139, 2136, 2133, 2134, 2119, 2255, 2232, 2140, 2081, 2090, 2102, 2110, 2106, 2149, 2456, 2590, 2219, 2123, 2083, 2168, 2108, 2126, 2132, 2111, 2215, 2389, 2305, 2458, 2126, 2114, 2339, 2160, 2114, 2186, 2110, 2083, 2148, 2135, 2097, 2153, 2131, 2132, 2129, 2512, 2728, 2289, 2116, 2141, 2126, 2209, 2158, 2205, 2136, 2121, 2152, 2814, 2749, 2183, 2123, 2114, 2136, 2144, 2105, 2126, 2146, 2135, 2118, 2175, 2122, 2119, 2188, 2108, 2129, 2103, 2125, 2109, 2149, 2119, 2136, 2150, 2223, 2098, 2116, 2153, 2234, 2113, 2183, 2131, 2125, 2175, 2119, 2107, 2156, 2102, 2115, 2161, 2144, 2138, 2135, 2515, 2491, 2288, 2114, 2132, 2129, 2145, 2112, 2130, 2127, 2126, 2140, 2103, 2110, 2139, 2095, 2122, 2145, 2742, 2168, 2114, 2151, 2105, 2124, 2162, 2486, 2579, 2484, 2208, 2109, 2202, 2105, 2114, 2317, 2378, 2234, 2127, 2154, 2102, 2159, 2174, 2129, 2155, 2176, 2132, 2169, 2156, 2125, 2149, 2124, 2122, 2100, 2093, 2116, 2466, 2702, 2323, 2129, 2150],
      "WindowCenter": [600.0, 597.0, 597.0, 597.0, 597.0, 597.0, 597.0, 597.0, 596.0, 597.0, 595.0, 593.0, 592.0, 591.0, 592.0, 591.0, 591.0, 592.0, 592.0, 593.0, 593.0, 594.0, 595.0, 595.0, 595.0, 595.0, 595.0, 597.0, 596.0, 598.0, 596.0, 595.0, 594.0, 593.0, 591.0, 592.0, 592.0, 592.0, 593.0, 594.0, 595.0, 595.0, 595.0, 595.0, 595.0, 594.0, 593.0, 593.0, 593.0, 593.0, 594.0, 594.0, 594.0, 594.0, 594.0, 594.0, 598.0, 595.0, 596.0, 595.0, 596.0, 594.0, 593.0, 592.0, 592.0, 591.0, 591.0, 590.0, 590.0, 591.0, 591.0, 592.0, 592.0, 593.0, 593.0, 595.0, 596.0, 599.0, 599.0, 598.0, 593.0, 593.0, 594.0, 593.0, 593.0, 593.0, 594.0, 594.0, 594.0, 594.0, 594.0, 594.0, 594.0, 593.0, 594.0, 594.0, 595.0, 597.0, 597.0, 596.0, 595.0, 595.0, 594.0, 594.0, 594.0, 595.0, 598.0, 599.0, 595.0, 593.0, 592.0, 593.0, 592.0, 592.0, 593.0, 593.0, 594.0, 596.0, 595.0, 597.0, 593.0, 593.0, 595.0, 592.0, 591.0, 592.0, 592.0, 592.0, 592.0, 592.0, 592.0, 592.0, 592.0, 592.0, 592.0, 596.0, 598.0, 596.0, 595.0, 596.0, 595.0, 596.0, 595.0, 596.0, 595.0, 594.0, 593.0, 599.0, 598.0, 593.0, 593.0, 592.0, 592.0, 592.0, 592.0, 592.0, 592.0, 592.0, 592.0, 593.0, 592.0, 593.0, 594.0, 594.0, 594.0, 594.0, 595.0, 595.0, 596.0, 596.0, 597.0, 597.0, 597.0, 595.0, 594.0, 594.0, 594.0, 592.0, 593.0, 593.0, 592.0, 593.0, 592.0, 592.0, 593.0, 592.0, 592.0, 593.0, 593.0, 593.0, 593.0, 597.0, 597.0, 596.0, 594.0, 593.0, 592.0, 592.0, 591.0, 592.0, 592.0, 592.0, 593.0, 593.0, 593.0, 594.0, 594.0, 594.0, 593.0, 598.0, 593.0, 592.0, 593.0, 592.0, 593.0, 594.0, 596.0, 597.0, 597.0, 595.0, 594.0, 594.0, 593.0, 593.0, 595.0, 596.0, 595.0, 592.0, 592.0, 592.0, 592.0, 593.0, 593.0, 594.0, 595.0, 595.0, 595.0, 595.0, 595.0, 595.0, 595.0, 595.0, 595.0, 595.0, 595.0, 599.0, 601.0, 598.0, 595.0, 595.0],
      "WindowWidth": [1261.0, 1256.0, 1254.0, 1254.0, 1255.0, 1255.0, 1255.0, 1254.0, 1253.0, 1254.0, 1250.0, 1245.0, 1244.0, 1243.0, 1243.0, 1241.0, 1242.0, 1243.0, 1243.0, 1245.0, 1246.0, 1247.0, 1249.0, 1250.0, 1251.0, 1251.0, 1251.0, 1254.0, 1253.0, 1256.0, 1253.0, 1251.0, 1248.0, 1245.0, 1242.0, 1243.0, 1243.0, 1243.0, 1245.0, 1247.0, 1249.0, 1250.0, 1251.0, 1251.0, 1250.0, 1249.0, 1247.0, 1246.0, 1246.0, 1246.0, 1248.0, 1248.0, 1247.0, 1248.0, 1247.0, 1248.0, 1256.0, 1251.0, 1252.0, 1251.0, 1252.0, 1248.0, 1246.0, 1244.0, 1243.0, 1241.0, 1241.0, 1240.0, 1239.0, 1240.0, 1242.0, 1242.0, 1244.0, 1245.0, 1247.0, 1250.0, 1253.0, 1258.0, 1259.0, 1255.0, 1247.0, 1246.0, 1246.0, 1245.0, 1245.0, 1246.0, 1247.0, 1248.0, 1249.0, 1248.0, 1248.0, 1248.0, 1247.0, 1246.0, 1247.0, 1248.0, 1249.0, 1253.0, 1254.0, 1253.0, 1251.0, 1250.0, 1249.0, 1249.0, 1249.0, 1249.0, 1255.0, 1258.0, 1250.0, 1246.0, 1244.0, 1246.0, 1245.0, 1244.0, 1245.0, 1245.0, 1247.0, 1251.0, 1251.0, 1254.0, 1246.0, 1245.0, 1248.0, 1245.0, 1242.0, 1244.0, 1243.0, 1243.0, 1244.0, 1244.0, 1243.0, 1244.0, 1244.0, 1243.0, 1243.0, 1251.0, 1257.0, 1252.0, 1251.0, 1251.0, 1251.0, 1252.0, 1251.0, 1251.0, 1250.0, 1247.0, 1247.0, 1256.0, 1256.0, 1247.0, 1245.0, 1244.0, 1244.0, 1244.0, 1243.0, 1243.0, 1243.0, 1242.0, 1243.0, 1244.0, 1244.0, 1246.0, 1248.0, 1247.0, 1248.0, 1249.0, 1250.0, 1250.0, 1252.0, 1254.0, 1255.0, 1255.0, 1255.0, 1251.0, 1248.0, 1247.0, 1248.0, 1244.0, 1245.0, 1246.0, 1244.0, 1245.0, 1245.0, 1244.0, 1245.0, 1244.0, 1244.0, 1245.0, 1246.0, 1246.0, 1246.0, 1253.0, 1256.0, 1252.0, 1249.0, 1246.0, 1243.0, 1243.0, 1242.0, 1244.0, 1244.0, 1245.0, 1246.0, 1246.0, 1247.0, 1248.0, 1248.0, 1248.0, 1247.0, 1256.0, 1246.0, 1244.0, 1245.0, 1245.0, 1246.0, 1247.0, 1252.0, 1255.0, 1254.0, 1250.0, 1248.0, 1249.0, 1246.0, 1246.0, 1251.0, 1251.0, 1249.0, 1245.0, 1244.0, 1243.0, 1244.0, 1245.0, 1246.0, 1248.0, 1249.0, 1250.0, 1251.0, 1251.0, 1250.0, 1250.0, 1250.0, 1250.0, 1250.0, 1250.0, 1251.0, 1258.0, 1263.0, 1257.0, 1252.0, 1250.0]
    },
    "slices": {}
  }
}