{
  "AcquisitionMatrixPE": 108,
  "AcquisitionNumber": 1,
  "AcquisitionTime": "11:58:34.497500",
  "BandwidthPerPixelPhaseEncode": 15.964,
  "BaseResolution": 108,
  "BodyPartExamined": "BRAIN",
  "ConsistencyInfo": "N4_VE11C_LATEST_20160120",
  "ConversionSoftware": "dcm2niix",
  "ConversionSoftwareVersion": "v1.0.20180622 GCC6.3.0",
  "DerivedVendorReportedEchoSpacing": 0.000580009,
  "DeviceSerialNumber": "66054",
  "DwellTime": 2.1e-06,
  "EchoTime": 0.031,
  "EchoTrainLength": 95,
  "EffectiveEchoSpacing": 0.000580009,
  "FlipAngle": 64,
  "ImageOrientationPatientDICOM": [0.997548, -0.0544069, 0.0440207, 0.068006, 0.902099, -0.426137],
  "ImageType": [
    "ORIGINAL",
    "PRIMARY",
    "M",
    "ND",
    "MOSAIC"
],
  "InPlanePhaseEncodingDirectionDICOM": "COL",
  "InstitutionAddress": "Chemin_des_Mines_9_Geneve_District_CH_1211",
  "InstitutionName": "Fondation_Campus_Biotech_Geneva",
  "InstitutionalDepartmentName": "Department",
  "MRAcquisitionType": "2D",
  "MagneticFieldStrength": 3,
  "Manufacturer": "Siemens",
  "ManufacturersModelName": "Prisma",
  "Modality": "MR",
  "MultibandAccelerationFactor": 4,
  "PartialFourier": 0.875,
  "PatientPosition": "HFS",
  "PercentPhaseFOV": 100,
  "PhaseEncodingDirection": "j-",
  "PhaseEncodingSteps": 95,
  "PhaseResolution": 1,
  "PixelBandwidth": 2205,
  "ProcedureStepDescription": "J.DRM_Michael",
  "ProtocolName": "Run5_bold_s4_TR1.28",
  "PulseSequenceDetails": "%SiemensSeq%_ep2d_bold",
  "ReceiveCoilActiveElements": "HC1-7;NC1,2",
  "ReceiveCoilName": "HeadNeck_64",
  "ReconMatrixPE": 108,
  "RepetitionTime": 1.28,
  "SAR": 0.0892363,
  "ScanOptions": "PFP_FS",
  "ScanningSequence": "EP",
  "SequenceName": "_epfid2d1_108",
  "SequenceVariant": "SK",
  "SeriesDescription": "Run5_bold_s4_TR1.28",
  "SeriesNumber": 10,
  "ShimSetting": [-1231, -11634, 6485, 658, 166, 79, -60, 16],
  "SliceThickness": 2,
  "SliceTiming": [0.945, 0, 0.63, 0.0775, 0.7075, 0.1575, 0.7875, 0.235, 0.865, 0.3925, 1.0225, 0.4725, 1.1025, 0.55, 1.18, 0.315, 0.945, 0, 0.63, 0.0775, 0.7075, 0.1575, 0.7875, 0.235, 0.865, 0.3925, 1.0225, 0.4725, 1.1025, 0.55, 1.18, 0.315, 0.945, 0, 0.63, 0.0775, 0.7075, 0.1575, 0.7875, 0.235, 0.865, 0.3925, 1.0225, 0.4725, 1.1025, 0.55, 1.18, 0.315, 0.945, 0, 0.63, 0.0775, 0.7075, 0.1575, 0.7875, 0.235, 0.865, 0.3925, 1.0225, 0.4725, 1.1025, 0.55, 1.18, 0.315],
  "SoftwareVersions": "syngo_MR_E11",
  "SpacingBetweenSlices": 2,
  "StationName": "AWP66054",
  "TaskName": "main",
  "TotalReadoutTime": 0.0620609,
  "TxRefAmp": 289.466,
  "dcmmeta_affine": [
    [-1.9858595132827759, 0.13538236916065216, 0.033052507787942886, 88.86563110351562],
    [0.10831005871295929, 1.7958450317382812, -0.8561716675758362, -74.09734344482422],
    [0.08763386309146881, 0.8483283519744873, 1.8071739673614502, -94.21282196044922],
    [0.0, 0.0, 0.0, 1.0]
],
  "dcmmeta_reorient_transform": [
    [0.0, -1.0, 0.0, 107.0],
    [1.0, 0.0, 0.0, 0.0],
    [0.0, 0.0, 1.0, 0.0],
    [0.0, 0.0, 0.0, 1.0]
],
  "dcmmeta_shape": [108, 108, 64, 373],
  "dcmmeta_slice_dim": 2,
  "dcmmeta_version": 0.6,
  "global": {
    "const": {
      "AccessionNumber": "",
      "AcquisitionMatrix": [108, 0, 0, 108],
      "AngioFlag": "N",
      "BitsAllocated": 16,
      "BitsStored": 12,
      "BodyPartExamined": "BRAIN",
      "Columns": 864,
      "EchoNumbers": 1,
      "EchoTime": 31.0,
      "EchoTrainLength": 95,
      "FlipAngle": 64.0,
      "HighBit": 11,
      "ImageOrientationPatient": [0.99754802554827, -0.0544069116933, 0.04402073017049, 0.06800602678957, 0.90209889904221, -0.4261370163071],
      "ImagePositionPatient": [-905.18097991493, -755.9463106382, 284.10082016618],
      "ImageType": [
        "ORIGINAL",
        "PRIMARY",
        "M",
        "ND",
        "MOSAIC"
],
      "ImagedNucleus": "1H",
      "ImagingFrequency": 123.257396,
      "InPlanePhaseEncodingDirection": "COL",
      "MRAcquisitionType": "2D",
      "MagneticFieldStrength": 3.0,
      "Manufacturer": "SIEMENS",
      "ManufacturerModelName": "Prisma",
      "Modality": "MR",
      "NumberOfAverages": 1.0,
      "NumberOfPhaseEncodingSteps": 95,
      "PercentPhaseFieldOfView": 100.0,
      "PercentSampling": 100.0,
      "PerformedProcedureStepStartTime": "111148.121000",
      "PhotometricInterpretation": "MONOCHROME2",
      "PixelBandwidth": 2205.0,
      "PixelRepresentation": 0,
      "PixelSpacing": [1.990740776062, 1.990740776062],
      "PositionReferenceIndicator": "",
      "ProtocolName": "Run5_bold_s4_TR1.28",
      "RepetitionTime": 1280.0,
      "Rows": 864,
      "SAR": 0.08923625768711,
      "SamplesPerPixel": 1,
      "ScanOptions": [
        "PFP",
        "FS"
],
      "ScanningSequence": "EP",
      "SequenceName": "*epfid2d1_108",
      "SequenceVariant": "SK",
      "SeriesDescription": "Run5_bold_s4_TR1.28",
      "SeriesNumber": 10,
      "SeriesTime": "115904.168000",
      "SliceLocation": -51.940841540392,
      "SliceThickness": 2.0,
      "SmallestImagePixelValue": 0,
      "SoftwareVersions": "syngo MR E11",
      "SpacingBetweenSlices": 2.0000000738181,
      "SpecificCharacterSet": "ISO_IR 100",
      "StudyID": "1",
      "StudyTime": "111147.949000",
      "TransmitCoilName": "Body",
      "VariableFlipAngleFlag": "N",
      "WindowCenterWidthExplanation": "Algo1",
      "dBdt": 0.0},
    "slices": {}
  },
  "time": {
    "samples": {
      "AcquisitionNumber": [1, 2, 3, 4, 5, 6, 7, 8, 9, 10, 11, 12, 13, 14, 15, 16, 17, 18, 19, 20, 21, 22, 23, 24, 25, 26, 27, 28, 29, 30, 31, 32, 33, 34, 35, 36, 37, 38, 39, 40, 41, 42, 43, 44, 45, 46, 47, 48, 49, 50, 51, 52, 53, 54, 55, 56, 57, 58, 59, 60, 61, 62, 63, 64, 65, 66, 67, 68, 69, 70, 71, 72, 73, 74, 75, 76, 77, 78, 79, 80, 81, 82, 83, 84, 85, 86, 87, 88, 89, 90, 91, 92, 93, 94, 95, 96, 97, 98, 99, 100, 101, 102, 103, 104, 105, 106, 107, 108, 109, 110, 111, 112, 113, 114, 115, 116, 117, 118, 119, 120, 121, 122, 123, 124, 125, 126, 127, 128, 129, 130, 131, 132, 133, 134, 135, 136, 137, 138, 139, 140, 141, 142, 143, 144, 145, 146, 147, 148, 149, 150, 151, 152, 153, 154, 155, 156, 157, 158, 159, 160, 161, 162, 163, 164, 165, 166, 167, 168, 169, 170, 171, 172, 173, 174, 175, 176, 177, 178, 179, 180, 181, 182, 183, 184, 185, 186, 187, 188, 189, 190, 191, 192, 193, 194, 195, 196, 197, 198, 199, 200, 201, 202, 203, 204, 205, 206, 207, 208, 209, 210, 211, 212, 213, 214, 215, 216, 217, 218, 219, 220, 221, 222, 223, 224, 225, 226, 227, 228, 229, 230, 231, 232, 233, 234, 235, 236, 237, 238, 239, 240, 241, 242, 243, 244, 245, 246, 247, 248, 249, 250, 251, 252, 253, 254, 255, 256, 257, 258, 259, 260, 261, 262, 263, 264, 265, 266, 267, 268, 269, 270, 271, 272, 273, 274, 275, 276, 277, 278, 279, 280, 281, 282, 283, 284, 285, 286, 287, 288, 289, 290, 291, 292, 293, 294, 295, 296, 297, 298, 299, 300, 301, 302, 303, 304, 305, 306, 307, 308, 309, 310, 311, 312, 313, 314, 315, 316, 317, 318, 319, 320, 321, 322, 323, 324, 325, 326, 327, 328, 329, 330, 331, 332, 333, 334, 335, 336, 337, 338, 339, 340, 341, 342, 343, 344, 345, 346, 347, 348, 349, 350, 351, 352, 353, 354, 355, 356, 357, 358, 359, 360, 361, 362, 363, 364, 365, 366, 367, 368, 369, 370, 371, 372, 373],
      "AcquisitionTime": ["115834.497500", "115835.777500", "115837.057500", "115838.337500", "115839.617500", "115840.897500", "115842.177500", "115843.457500", "115844.737500", "115846.017500", "115847.297500", "115848.577500", "115849.857500", "115851.137500", "115852.417500", "115853.697500", "115854.977500", "115856.257500", "115857.537500", "115858.817500", "115900.097500", "115901.377500", "115902.657500", "115903.937500", "115905.217500", "115906.497500", "115907.777500", "115909.057500", "115910.337500", "115911.617500", "115912.897500", "115914.177500", "115915.457500", "115916.737500", "115918.017500", "115919.297500", "115920.577500", "115921.857500", "115923.137500", "115924.417500", "115925.697500", "115926.977500", "115928.257500", "115929.537500", "115930.817500", "115932.097500", "115933.377500", "115934.657500", "115935.937500", "115937.217500", "115938.497500", "115939.777500", "115941.057500", "115942.337500", "115943.617500", "115944.897500", "115946.177500", "115947.457500", "115948.737500", "115950.017500", "115951.297500", "115952.577500", "115953.857500", "115955.137500", "115956.417500", "115957.697500", "115958.977500", "120000.257500", "120001.537500", "120002.817500", "120004.097500", "120005.377500", "120006.657500", "120007.937500", "120009.217500", "120010.497500", "120011.777500", "120013.057500", "120014.337500", "120015.617500", "120016.897500", "120018.177500", "120019.457500", "120020.737500", "120022.017500", "120023.297500", "120024.577500", "120025.857500", "120027.137500", "120028.417500", "120029.697500", "120030.977500", "120032.257500", "120033.537500", "120034.817500", "120036.097500", "120037.377500", "120038.657500", "120039.937500", "120041.217500", "120042.497500", "120043.777500", "120045.057500", "120046.337500", "120047.617500", "120048.897500", "120050.177500", "120051.457500", "120052.737500", "120054.017500", "120055.297500", "120056.577500", "120057.857500", "120059.137500", "120100.417500", "120101.697500", "120102.977500", "120104.257500", "120105.537500", "120106.817500", "120108.097500", "120109.377500", "120110.657500", "120111.937500", "120113.217500", "120114.497500", "120115.777500", "120117.057500", "120118.337500", "120119.617500", "120120.897500", "120122.177500", "120123.457500", "120124.737500", "120126.017500", "120127.297500", "120128.577500", "120129.857500", "120131.137500", "120132.417500", "120133.697500", "120134.977500", "120136.257500", "120137.537500", "120138.817500", "120140.097500", "120141.377500", "120142.657500", "120143.937500", "120145.217500", "120146.497500", "120147.777500", "120149.057500", "120150.337500", "120151.617500", "120152.897500", "120154.177500", "120155.457500", "120156.737500", "120158.017500", "120159.297500", "120200.577500", "120201.857500", "120203.137500", "120204.417500", "120205.697500", "120206.977500", "120208.257500", "120209.537500", "120210.817500", "120212.097500", "120213.377500", "120214.657500", "120215.937500", "120217.217500", "120218.497500", "120219.777500", "120221.057500", "120222.337500", "120223.617500", "120224.897500", "120226.177500", "120227.457500", "120228.737500", "120230.017500", "120231.297500", "120232.577500", "120233.857500", "120235.137500", "120236.417500", "120237.697500", "120238.977500", "120240.257500", "120241.537500", "120242.817500", "120244.097500", "120245.377500", "120246.657500", "120247.937500", "120249.217500", "120250.497500", "120251.777500", "120253.057500", "120254.337500", "120255.617500", "120256.897500", "120258.177500", "120259.457500", "120300.737500", "120302.017500", "120303.297500", "120304.577500", "120305.857500", "120307.137500", "120308.417500", "120309.697500", "120310.977500", "120312.257500", "120313.537500", "120314.817500", "120316.097500", "120317.377500", "120318.657500", "120319.937500", "120321.217500", "120322.497500", "120323.777500", "120325.057500", "120326.337500", "120327.617500", "120328.897500", "120330.177500", "120331.457500", "120332.737500", "120334.017500", "120335.297500", "120336.577500", "120337.857500", "120339.137500", "120340.417500", "120341.697500", "120342.977500", "120344.257500", "120345.537500", "120346.817500", "120348.097500", "120349.377500", "120350.657500", "120351.937500", "120353.217500", "120354.497500", "120355.777500", "120357.057500", "120358.337500", "120359.617500", "120400.897500", "120402.177500", "120403.457500", "120404.737500", "120406.017500", "120407.297500", "120408.577500", "120409.857500", "120411.137500", "120412.417500", "120413.697500", "120414.977500", "120416.257500", "120417.537500", "120418.817500", "120420.097500", "120421.377500", "120422.657500", "120423.937500", "120425.217500", "120426.497500", "120427.777500", "120429.057500", "120430.337500", "120431.617500", "120432.897500", "120434.177500", "120435.457500", "120436.737500", "120438.017500", "120439.297500", "120440.577500", "120441.857500", "120443.137500", "120444.417500", "120445.697500", "120446.977500", "120448.257500", "120449.537500", "120450.817500", "120452.097500", "120453.377500", "120454.657500", "120455.937500", "120457.217500", "120458.497500", "120459.777500", "120501.057500", "120502.337500", "120503.617500", "120504.897500", "120506.177500", "120507.457500", "120508.737500", "120510.017500", "120511.297500", "120512.577500", "120513.857500", "120515.137500", "120516.417500", "120517.697500", "120518.977500", "120520.257500", "120521.537500", "120522.817500", "120524.097500", "120525.377500", "120526.657500", "120527.937500", "120529.217500", "120530.497500", "120531.777500", "120533.057500", "120534.337500", "120535.617500", "120536.897500", "120538.177500", "120539.457500", "120540.737500", "120542.017500", "120543.297500", "120544.577500", "120545.857500", "120547.137500", "120548.417500", "120549.697500", "120550.977500", "120552.257500", "120553.537500", "120554.817500", "120556.097500", "120557.377500", "120558.657500", "120559.937500", "120601.217500", "120602.497500", "120603.777500", "120605.057500", "120606.337500", "120607.617500", "120608.897500", "120610.177500", "120611.457500", "120612.737500", "120614.017500", "120615.297500", "120616.577500", "120617.857500", "120619.137500", "120620.417500", "120621.697500", "120622.977500", "120624.257500", "120625.537500", "120626.817500", "120628.097500", "120629.377500", "120630.657500"],
      "ContentTime": ["115904.172000", "115904.175000", "115904.178000", "115904.181000", "115904.184000", "115904.187000", "115904.190000", "115904.193000", "115904.207000", "115904.210000", "115904.213000", "115904.216000", "115904.219000", "115904.221000", "115904.224000", "115904.231000", "115904.234000", "115904.236000", "115904.239000", "115904.242000", "115904.245000", "115904.248000", "115944.167000", "115944.170000", "115944.173000", "115944.176000", "115944.178000", "115944.181000", "115944.184000", "115944.187000", "115944.190000", "115944.193000", "115944.196000", "115944.199000", "115944.201000", "115944.204000", "115944.207000", "115944.210000", "115944.213000", "115944.216000", "115944.224000", "115944.227000", "115944.230000", "115944.233000", "115944.235000", "115944.238000", "115944.241000", "115944.244000", "115944.247000", "115944.253000", "115944.256000", "115944.260000", "115944.263000", "120024.168000", "120024.171000", "120024.174000", "120024.177000", "120024.179000", "120024.182000", "120024.185000", "120024.188000", "120024.191000", "120024.194000", "120024.197000", "120024.200000", "120024.203000", "120024.206000", "120024.208000", "120024.211000", "120024.214000", "120024.220000", "120024.223000", "120024.226000", "120024.229000", "120024.235000", "120024.238000", "120024.241000", "120024.244000", "120024.247000", "120024.250000", "120024.253000", "120024.256000", "120024.259000", "120024.261000", "120024.264000", "120104.168000", "120104.171000", "120104.174000", "120104.177000", "120104.194000", "120104.197000", "120104.200000", "120104.203000", "120104.206000", "120104.209000", "120104.212000", "120104.215000", "120104.218000", "120104.222000", "120104.225000", "120104.228000", "120104.231000", "120104.234000", "120104.237000", "120104.240000", "120104.243000", "120104.246000", "120104.249000", "120104.252000", "120104.255000", "120104.258000", "120104.261000", "120104.264000", "120104.276000", "120104.279000", "120104.282000", "120144.167000", "120144.170000", "120144.178000", "120144.181000", "120144.184000", "120144.187000", "120144.190000", "120144.193000", "120144.195000", "120144.198000", "120144.201000", "120144.204000", "120144.207000", "120144.210000", "120144.213000", "120144.216000", "120144.219000", "120144.222000", "120144.225000", "120144.227000", "120144.230000", "120144.233000", "120144.236000", "120144.239000", "120144.242000", "120144.245000", "120144.248000", "120144.251000", "120144.253000", "120144.256000", "120144.259000", "120224.168000", "120224.171000", "120224.174000", "120224.177000", "120224.192000", "120224.207000", "120224.211000", "120224.221000", "120224.224000", "120224.227000", "120224.242000", "120224.246000", "120224.249000", "120224.252000", "120224.254000", "120224.257000", "120224.260000", "120224.263000", "120224.266000", "120224.269000", "120224.272000", "120224.275000", "120224.278000", "120224.281000", "120224.284000", "120224.287000", "120224.289000", "120224.292000", "120224.295000", "120224.298000", "120224.301000", "120304.168000", "120304.171000", "120304.174000", "120304.177000", "120304.180000", "120304.183000", "120304.186000", "120304.188000", "120304.191000", "120304.194000", "120304.197000", "120304.200000", "120304.203000", "120304.206000", "120304.215000", "120304.218000", "120304.221000", "120304.224000", "120304.227000", "120304.230000", "120304.233000", "120304.236000", "120304.239000", "120304.242000", "120304.245000", "120304.248000", "120304.251000", "120304.253000", "120304.256000", "120304.259000", "120304.262000", "120304.265000", "120344.167000", "120344.170000", "120344.173000", "120344.176000", "120344.179000", "120344.182000", "120344.185000", "120344.188000", "120344.191000", "120344.194000", "120344.197000", "120344.200000", "120344.202000", "120344.205000", "120344.208000", "120344.211000", "120344.214000", "120344.225000", "120344.228000", "120344.230000", "120344.233000", "120344.236000", "120344.239000", "120344.242000", "120344.245000", "120344.248000", "120344.251000", "120344.254000", "120344.256000", "120344.259000", "120344.262000", "120424.167000", "120424.170000", "120424.173000", "120424.176000", "120424.179000", "120424.182000", "120424.185000", "120424.188000", "120424.191000", "120424.194000", "120424.197000", "120424.199000", "120424.202000", "120424.205000", "120424.208000", "120424.211000", "120424.214000", "120424.217000", "120424.220000", "120424.223000", "120424.226000", "120424.229000", "120424.232000", "120424.235000", "120424.237000", "120424.248000", "120424.251000", "120424.254000", "120424.257000", "120424.260000", "120424.263000", "120504.168000", "120504.171000", "120504.174000", "120504.177000", "120504.192000", "120504.195000", "120504.198000", "120504.201000", "120504.209000", "120504.223000", "120504.226000", "120504.229000", "120504.232000", "120504.235000", "120504.237000", "120504.240000", "120504.243000", "120504.246000", "120504.249000", "120504.252000", "120504.255000", "120504.258000", "120504.261000", "120504.264000", "120504.275000", "120504.279000", "120504.282000", "120504.285000", "120504.288000", "120504.291000", "120504.294000", "120544.168000", "120544.171000", "120544.174000", "120544.177000", "120544.180000", "120544.192000", "120544.195000", "120544.198000", "120544.201000", "120544.204000", "120544.207000", "120544.210000", "120544.213000", "120544.216000", "120544.219000", "120544.221000", "120544.224000", "120544.227000", "120544.230000", "120544.233000", "120544.236000", "120544.239000", "120544.242000", "120544.245000", "120544.248000", "120544.251000", "120544.254000", "120544.257000", "120544.259000", "120544.263000", "120544.266000", "120544.268000", "120624.167000", "120624.183000", "120624.186000", "120624.190000", "120624.192000", "120624.195000", "120624.198000", "120624.201000", "120624.204000", "120624.207000", "120624.210000", "120624.213000", "120624.216000", "120624.219000", "120624.222000", "120624.225000", "120624.228000", "120624.231000", "120624.233000", "120624.236000", "120624.239000", "120624.242000", "120624.245000", "120624.248000", "120624.251000", "120624.254000", "120624.257000", "120624.260000", "120624.263000", "120624.266000", "120624.269000", "120632.580000", "120632.583000", "120632.586000", "120632.589000", "120632.592000", "120632.595000", "120632.598000"],
      "InstanceCreationTime": ["115904.172000", "115904.175000", "115904.178000", "115904.181000", "115904.184000", "115904.187000", "115904.190000", "115904.193000", "115904.207000", "115904.210000", "115904.213000", "115904.216000", "115904.219000", "115904.221000", "115904.224000", "115904.231000", "115904.234000", "115904.236000", "115904.239000", "115904.242000", "115904.245000", "115904.248000", "115944.167000", "115944.170000", "115944.173000", "115944.176000", "115944.178000", "115944.181000", "115944.184000", "115944.187000", "115944.190000", "115944.193000", "115944.196000", "115944.199000", "115944.201000", "115944.204000", "115944.207000", "115944.210000", "115944.213000", "115944.216000", "115944.224000", "115944.227000", "115944.230000", "115944.233000", "115944.235000", "115944.238000", "115944.241000", "115944.244000", "115944.247000", "115944.253000", "115944.256000", "115944.260000", "115944.263000", "120024.168000", "120024.171000", "120024.174000", "120024.177000", "120024.179000", "120024.182000", "120024.185000", "120024.188000", "120024.191000", "120024.194000", "120024.197000", "120024.200000", "120024.203000", "120024.206000", "120024.208000", "120024.211000", "120024.214000", "120024.220000", "120024.223000", "120024.226000", "120024.229000", "120024.235000", "120024.238000", "120024.241000", "120024.244000", "120024.247000", "120024.250000", "120024.253000", "120024.256000", "120024.259000", "120024.261000", "120024.264000", "120104.168000", "120104.171000", "120104.174000", "120104.177000", "120104.194000", "120104.197000", "120104.200000", "120104.203000", "120104.206000", "120104.209000", "120104.212000", "120104.215000", "120104.218000", "120104.222000", "120104.225000", "120104.228000", "120104.231000", "120104.234000", "120104.237000", "120104.240000", "120104.243000", "120104.246000", "120104.249000", "120104.252000", "120104.255000", "120104.258000", "120104.261000", "120104.264000", "120104.276000", "120104.279000", "120104.282000", "120144.167000", "120144.170000", "120144.178000", "120144.181000", "120144.184000", "120144.187000", "120144.190000", "120144.193000", "120144.195000", "120144.198000", "120144.201000", "120144.204000", "120144.207000", "120144.210000", "120144.213000", "120144.216000", "120144.219000", "120144.222000", "120144.225000", "120144.227000", "120144.230000", "120144.233000", "120144.236000", "120144.239000", "120144.242000", "120144.245000", "120144.248000", "120144.251000", "120144.253000", "120144.256000", "120144.259000", "120224.168000", "120224.171000", "120224.174000", "120224.177000", "120224.192000", "120224.207000", "120224.211000", "120224.221000", "120224.224000", "120224.227000", "120224.242000", "120224.246000", "120224.249000", "120224.252000", "120224.254000", "120224.257000", "120224.260000", "120224.263000", "120224.266000", "120224.269000", "120224.272000", "120224.275000", "120224.278000", "120224.281000", "120224.284000", "120224.287000", "120224.289000", "120224.292000", "120224.295000", "120224.298000", "120224.301000", "120304.168000", "120304.171000", "120304.174000", "120304.177000", "120304.180000", "120304.183000", "120304.186000", "120304.188000", "120304.191000", "120304.194000", "120304.197000", "120304.200000", "120304.203000", "120304.206000", "120304.215000", "120304.218000", "120304.221000", "120304.224000", "120304.227000", "120304.230000", "120304.233000", "120304.236000", "120304.239000", "120304.242000", "120304.245000", "120304.248000", "120304.251000", "120304.253000", "120304.256000", "120304.259000", "120304.262000", "120304.265000", "120344.167000", "120344.170000", "120344.173000", "120344.176000", "120344.179000", "120344.182000", "120344.185000", "120344.188000", "120344.191000", "120344.194000", "120344.197000", "120344.200000", "120344.202000", "120344.205000", "120344.208000", "120344.211000", "120344.214000", "120344.225000", "120344.228000", "120344.230000", "120344.233000", "120344.236000", "120344.239000", "120344.242000", "120344.245000", "120344.248000", "120344.251000", "120344.254000", "120344.256000", "120344.259000", "120344.262000", "120424.167000", "120424.170000", "120424.173000", "120424.176000", "120424.179000", "120424.182000", "120424.185000", "120424.188000", "120424.191000", "120424.194000", "120424.197000", "120424.199000", "120424.202000", "120424.205000", "120424.208000", "120424.211000", "120424.214000", "120424.217000", "120424.220000", "120424.223000", "120424.226000", "120424.229000", "120424.232000", "120424.235000", "120424.237000", "120424.248000", "120424.251000", "120424.254000", "120424.257000", "120424.260000", "120424.263000", "120504.168000", "120504.171000", "120504.174000", "120504.177000", "120504.192000", "120504.195000", "120504.198000", "120504.201000", "120504.209000", "120504.223000", "120504.226000", "120504.229000", "120504.232000", "120504.235000", "120504.237000", "120504.240000", "120504.243000", "120504.246000", "120504.249000", "120504.252000", "120504.255000", "120504.258000", "120504.261000", "120504.264000", "120504.275000", "120504.279000", "120504.282000", "120504.285000", "120504.288000", "120504.291000", "120504.294000", "120544.168000", "120544.171000", "120544.174000", "120544.177000", "120544.180000", "120544.192000", "120544.195000", "120544.198000", "120544.201000", "120544.204000", "120544.207000", "120544.210000", "120544.213000", "120544.216000", "120544.219000", "120544.221000", "120544.224000", "120544.227000", "120544.230000", "120544.233000", "120544.236000", "120544.239000", "120544.242000", "120544.245000", "120544.248000", "120544.251000", "120544.254000", "120544.257000", "120544.259000", "120544.263000", "120544.266000", "120544.268000", "120624.167000", "120624.183000", "120624.186000", "120624.190000", "120624.192000", "120624.195000", "120624.198000", "120624.201000", "120624.204000", "120624.207000", "120624.210000", "120624.213000", "120624.216000", "120624.219000", "120624.222000", "120624.225000", "120624.228000", "120624.231000", "120624.233000", "120624.236000", "120624.239000", "120624.242000", "120624.245000", "120624.248000", "120624.251000", "120624.254000", "120624.257000", "120624.260000", "120624.263000", "120624.266000", "120624.269000", "120632.580000", "120632.583000", "120632.586000", "120632.589000", "120632.592000", "120632.595000", "120632.598000"],
      "InstanceNumber": [1, 2, 3, 4, 5, 6, 7, 8, 9, 10, 11, 12, 13, 14, 15, 16, 17, 18, 19, 20, 21, 22, 23, 24, 25, 26, 27, 28, 29, 30, 31, 32, 33, 34, 35, 36, 37, 38, 39, 40, 41, 42, 43, 44, 45, 46, 47, 48, 49, 50, 51, 52, 53, 54, 55, 56, 57, 58, 59, 60, 61, 62, 63, 64, 65, 66, 67, 68, 69, 70, 71, 72, 73, 74, 75, 76, 77, 78, 79, 80, 81, 82, 83, 84, 85, 86, 87, 88, 89, 90, 91, 92, 93, 94, 95, 96, 97, 98, 99, 100, 101, 102, 103, 104, 105, 106, 107, 108, 109, 110, 111, 112, 113, 114, 115, 116, 117, 118, 119, 120, 121, 122, 123, 124, 125, 126, 127, 128, 129, 130, 131, 132, 133, 134, 135, 136, 137, 138, 139, 140, 141, 142, 143, 144, 145, 146, 147, 148, 149, 150, 151, 152, 153, 154, 155, 156, 157, 158, 159, 160, 161, 162, 163, 164, 165, 166, 167, 168, 169, 170, 171, 172, 173, 174, 175, 176, 177, 178, 179, 180, 181, 182, 183, 184, 185, 186, 187, 188, 189, 190, 191, 192, 193, 194, 195, 196, 197, 198, 199, 200, 201, 202, 203, 204, 205, 206, 207, 208, 209, 210, 211, 212, 213, 214, 215, 216, 217, 218, 219, 220, 221, 222, 223, 224, 225, 226, 227, 228, 229, 230, 231, 232, 233, 234, 235, 236, 237, 238, 239, 240, 241, 242, 243, 244, 245, 246, 247, 248, 249, 250, 251, 252, 253, 254, 255, 256, 257, 258, 259, 260, 261, 262, 263, 264, 265, 266, 267, 268, 269, 270, 271, 272, 273, 274, 275, 276, 277, 278, 279, 280, 281, 282, 283, 284, 285, 286, 287, 288, 289, 290, 291, 292, 293, 294, 295, 296, 297, 298, 299, 300, 301, 302, 303, 304, 305, 306, 307, 308, 309, 310, 311, 312, 313, 314, 315, 316, 317, 318, 319, 320, 321, 322, 323, 324, 325, 326, 327, 328, 329, 330, 331, 332, 333, 334, 335, 336, 337, 338, 339, 340, 341, 342, 343, 344, 345, 346, 347, 348, 349, 350, 351, 352, 353, 354, 355, 356, 357, 358, 359, 360, 361, 362, 363, 364, 365, 366, 367, 368, 369, 370, 371, 372, 373],
