{
  "AcquisitionMatrixPE": 108,
  "AcquisitionNumber": 1,
  "AcquisitionTime": "11:23:50.770000",
  "BandwidthPerPixelPhaseEncode": 15.964,
  "BaseResolution": 108,
  "BodyPartExamined": "BRAIN",
  "ConsistencyInfo": "N4_VE11C_LATEST_20160120",
  "ConversionSoftware": "dcm2niix",
  "ConversionSoftwareVersion": "v1.0.20180622 GCC6.3.0",
  "DerivedVendorReportedEchoSpacing": 0.000580009,
  "DeviceSerialNumber": "66054",
  "DwellTime": 2.1e-06,
  "EchoTime": 0.031,
  "EchoTrainLength": 95,
  "EffectiveEchoSpacing": 0.000580009,
  "FlipAngle": 64,
  "ImageOrientationPatientDICOM": [0.988706, 0.144388, 0.0401435, -0.117896, 0.914743, -0.386452],
  "ImageType": [
    "ORIGINAL",
    "PRIMARY",
    "M",
    "ND",
    "MOSAIC"
],
  "InPlanePhaseEncodingDirectionDICOM": "COL",
  "InstitutionAddress": "Chemin_des_Mines_9_Geneve_District_CH_1211",
  "InstitutionName": "Fondation_Campus_Biotech_Geneva",
  "InstitutionalDepartmentName": "Department",
  "MRAcquisitionType": "2D",
  "MagneticFieldStrength": 3,
  "Manufacturer": "Siemens",
  "ManufacturersModelName": "Prisma",
  "Modality": "MR",
  "MultibandAccelerationFactor": 4,
  "PartialFourier": 0.875,
  "PatientPosition": "HFS",
  "PercentPhaseFOV": 100,
  "PhaseEncodingDirection": "j-",
  "PhaseEncodingSteps": 95,
  "PhaseResolution": 1,
  "PixelBandwidth": 2205,
  "ProcedureStepDescription": "J.DRM_Michael",
  "ProtocolName": "Rest_bold_s4_TR1.28",
  "PulseSequenceDetails": "%SiemensSeq%_ep2d_bold",
  "ReceiveCoilActiveElements": "HC1-7;NC1,2",
  "ReceiveCoilName": "HeadNeck_64",
  "ReconMatrixPE": 108,
  "RepetitionTime": 1.28,
  "SAR": 0.0702714,
  "ScanOptions": "PFP_FS",
  "ScanningSequence": "EP",
  "SequenceName": "_epfid2d1_108",
  "SequenceVariant": "SK",
  "SeriesDescription": "Rest_bold_s4_TR1.28",
  "SeriesNumber": 7,
  "ShimSetting": [-1252, -11685, 6458, 548, 162, -221, -53, 58],
  "SliceThickness": 2,
  "SliceTiming": [0.945, 0, 0.63, 0.08, 0.71, 0.1575, 0.7875, 0.2375, 0.8675, 0.395, 1.025, 0.4725, 1.1025, 0.5525, 1.1825, 0.315, 0.945, 0, 0.63, 0.08, 0.71, 0.1575, 0.7875, 0.2375, 0.8675, 0.395, 1.025, 0.4725, 1.1025, 0.5525, 1.1825, 0.315, 0.945, 0, 0.63, 0.08, 0.71, 0.1575, 0.7875, 0.2375, 0.8675, 0.395, 1.025, 0.4725, 1.1025, 0.5525, 1.1825, 0.315, 0.945, 0, 0.63, 0.08, 0.71, 0.1575, 0.7875, 0.2375, 0.8675, 0.395, 1.025, 0.4725, 1.1025, 0.5525, 1.1825, 0.315],
  "SoftwareVersions": "syngo_MR_E11",
  "SpacingBetweenSlices": 2,
  "StationName": "AWP66054",
  "TaskName": "rest",
  "TotalReadoutTime": 0.0620609,
  "TxRefAmp": 248.348,
  "dcmmeta_affine": [
    [-1.968258261680603, -0.23470062017440796, 0.18504051864147186, 112.74041748046875],
    [-0.2874397337436676, 1.821016550064087, -0.7547104954719543, -57.46609115600586],
    [0.07991540431976318, 0.7693265676498413, 1.8428707122802734, -95.6504135131836],
    [0.0, 0.0, 0.0, 1.0]
],
  "dcmmeta_reorient_transform": [
    [0.0, -1.0, 0.0, 107.0],
    [1.0, 0.0, 0.0, 0.0],
    [0.0, 0.0, 1.0, 0.0],
    [0.0, 0.0, 0.0, 1.0]
],
  "dcmmeta_shape": [108, 108, 64, 250],
  "dcmmeta_slice_dim": 2,
  "dcmmeta_version": 0.6,
  "global": {
    "const": {
      "AccessionNumber": "",
      "AcquisitionMatrix": [108, 0, 0, 108],
      "AngioFlag": "N",
      "BitsAllocated": 16,
      "BitsStored": 12,
      "BodyPartExamined": "BRAIN",
      "Columns": 864,
      "EchoNumbers": 1,
      "EchoTime": 31.0,
      "EchoTrainLength": 95,
      "FlipAngle": 64.0,
      "HighBit": 11,
      "ImageOrientationPatient": [0.98870648136306, 0.14438832735409, 0.04014355034836, -0.1178961251664, 0.91474315787882, -0.3864524017064],
      "ImagePositionPatient": [-742.91225613018, -934.37913067755, 247.26494087746],
      "ImageType": [
        "ORIGINAL",
        "PRIMARY",
        "M",
        "ND",
        "MOSAIC"
],
      "ImagedNucleus": "1H",
      "ImagingFrequency": 123.257408,
      "InPlanePhaseEncodingDirection": "COL",
      "MRAcquisitionType": "2D",
      "MagneticFieldStrength": 3.0,
      "Manufacturer": "SIEMENS",
      "ManufacturerModelName": "Prisma",
      "Modality": "MR",
      "NumberOfAverages": 1.0,
      "NumberOfPhaseEncodingSteps": 95,
      "PercentPhaseFieldOfView": 100.0,
      "PercentSampling": 100.0,
      "PerformedProcedureStepStartTime": "110109.021000",
      "PhotometricInterpretation": "MONOCHROME2",
      "PixelBandwidth": 2205.0,
      "PixelRepresentation": 0,
      "PixelSpacing": [1.990740776062, 1.990740776062],
      "PositionReferenceIndicator": "",
      "ProtocolName": "Rest_bold_s4_TR1.28",
      "RepetitionTime": 1280.0,
      "Rows": 864,
      "SAR": 0.07027144204898,
      "SamplesPerPixel": 1,
      "ScanOptions": [
        "PFP",
        "FS"
],
      "ScanningSequence": "EP",
      "SequenceName": "*epfid2d1_108",
      "SequenceVariant": "SK",
      "SeriesDescription": "Rest_bold_s4_TR1.28",
      "SeriesNumber": 7,
      "SeriesTime": "112429.928000",
      "SliceLocation": -56.019768518516,
      "SliceThickness": 2.0,
      "SmallestImagePixelValue": 0,
      "SoftwareVersions": "syngo MR E11",
      "SpacingBetweenSlices": 2.0000000530406,
      "SpecificCharacterSet": "ISO_IR 100",
      "StudyID": "1",
      "StudyTime": "110108.840000",
      "TransmitCoilName": "Body",
      "VariableFlipAngleFlag": "N",
      "WindowCenterWidthExplanation": "Algo1",
      "dBdt": 0.0},
    "slices": {}
  },
  "time": {
    "samples": {
      "AcquisitionNumber": [1, 2, 3, 4, 5, 6, 7, 8, 9, 10, 11, 12, 13, 14, 15, 16, 17, 18, 19, 20, 21, 22, 23, 24, 25, 26, 27, 28, 29, 30, 31, 32, 33, 34, 35, 36, 37, 38, 39, 40, 41, 42, 43, 44, 45, 46, 47, 48, 49, 50, 51, 52, 53, 54, 55, 56, 57, 58, 59, 60, 61, 62, 63, 64, 65, 66, 67, 68, 69, 70, 71, 72, 73, 74, 75, 76, 77, 78, 79, 80, 81, 82, 83, 84, 85, 86, 87, 88, 89, 90, 91, 92, 93, 94, 95, 96, 97, 98, 99, 100, 101, 102, 103, 104, 105, 106, 107, 108, 109, 110, 111, 112, 113, 114, 115, 116, 117, 118, 119, 120, 121, 122, 123, 124, 125, 126, 127, 128, 129, 130, 131, 132, 133, 134, 135, 136, 137, 138, 139, 140, 141, 142, 143, 144, 145, 146, 147, 148, 149, 150, 151, 152, 153, 154, 155, 156, 157, 158, 159, 160, 161, 162, 163, 164, 165, 166, 167, 168, 169, 170, 171, 172, 173, 174, 175, 176, 177, 178, 179, 180, 181, 182, 183, 184, 185, 186, 187, 188, 189, 190, 191, 192, 193, 194, 195, 196, 197, 198, 199, 200, 201, 202, 203, 204, 205, 206, 207, 208, 209, 210, 211, 212, 213, 214, 215, 216, 217, 218, 219, 220, 221, 222, 223, 224, 225, 226, 227, 228, 229, 230, 231, 232, 233, 234, 235, 236, 237, 238, 239, 240, 241, 242, 243, 244, 245, 246, 247, 248, 249, 250],
      "AcquisitionTime": ["112350.770000", "112352.050000", "112353.330000", "112354.610000", "112355.890000", "112357.170000", "112358.450000", "112359.730000", "112401.010000", "112402.290000", "112403.570000", "112404.850000", "112406.130000", "112407.410000", "112408.690000", "112409.970000", "112411.250000", "112412.530000", "112413.810000", "112415.090000", "112416.370000", "112417.650000", "112418.930000", "112420.210000", "112421.490000", "112422.770000", "112424.050000", "112425.330000", "112426.610000", "112427.890000", "112429.170000", "112430.450000", "112431.730000", "112433.010000", "112434.290000", "112435.570000", "112436.850000", "112438.130000", "112439.410000", "112440.690000", "112441.970000", "112443.250000", "112444.530000", "112445.810000", "112447.090000", "112448.370000", "112449.650000", "112450.930000", "112452.210000", "112453.490000", "112454.770000", "112456.050000", "112457.330000", "112458.610000", "112459.890000", "112501.170000", "112502.450000", "112503.730000", "112505.010000", "112506.290000", "112507.570000", "112508.850000", "112510.130000", "112511.410000", "112512.690000", "112513.970000", "112515.250000", "112516.530000", "112517.810000", "112519.090000", "112520.370000", "112521.650000", "112522.930000", "112524.210000", "112525.490000", "112526.770000", "112528.050000", "112529.330000", "112530.610000", "112531.890000", "112533.170000", "112534.450000", "112535.730000", "112537.010000", "112538.290000", "112539.570000", "112540.850000", "112542.130000", "112543.410000", "112544.690000", "112545.970000", "112547.250000", "112548.530000", "112549.810000", "112551.090000", "112552.370000", "112553.650000", "112554.930000", "112556.210000", "112557.490000", "112558.770000", "112600.050000", "112601.330000", "112602.610000", "112603.890000", "112605.170000", "112606.450000", "112607.730000", "112609.010000", "112610.290000", "112611.570000", "112612.850000", "112614.130000", "112615.410000", "112616.690000", "112617.970000", "112619.250000", "112620.530000", "112621.810000", "112623.090000", "112624.370000", "112625.650000", "112626.930000", "112628.210000", "112629.490000", "112630.770000", "112632.050000", "112633.330000", "112634.610000", "112635.890000", "112637.170000", "112638.450000", "112639.730000", "112641.010000", "112642.290000", "112643.570000", "112644.850000", "112646.130000", "112647.410000", "112648.690000", "112649.970000", "112651.250000", "112652.530000", "112653.810000", "112655.090000", "112656.370000", "112657.650000", "112658.930000", "112700.210000", "112701.490000", "112702.770000", "112704.050000", "112705.330000", "112706.610000", "112707.890000", "112709.170000", "112710.450000", "112711.730000", "112713.010000", "112714.290000", "112715.570000", "112716.850000", "112718.130000", "112719.410000", "112720.690000", "112721.970000", "112723.250000", "112724.530000", "112725.810000", "112727.090000", "112728.370000", "112729.650000", "112730.930000", "112732.210000", "112733.490000", "112734.770000", "112736.050000", "112737.330000", "112738.610000", "112739.890000", "112741.170000", "112742.450000", "112743.730000", "112745.010000", "112746.290000", "112747.570000", "112748.850000", "112750.130000", "112751.410000", "112752.690000", "112753.970000", "112755.250000", "112756.530000", "112757.810000", "112759.090000", "112800.370000", "112801.650000", "112802.930000", "112804.210000", "112805.490000", "112806.770000", "112808.050000", "112809.330000", "112810.610000", "112811.890000", "112813.170000", "112814.450000", "112815.730000", "112817.010000", "112818.290000", "112819.570000", "112820.850000", "112822.130000", "112823.410000", "112824.690000", "112825.970000", "112827.250000", "112828.530000", "112829.810000", "112831.090000", "112832.370000", "112833.650000", "112834.930000", "112836.210000", "112837.490000", "112838.770000", "112840.050000", "112841.330000", "112842.610000", "112843.890000", "112845.170000", "112846.450000", "112847.730000", "112849.010000", "112850.290000", "112851.570000", "112852.850000", "112854.130000", "112855.410000", "112856.690000", "112857.970000", "112859.250000", "112900.530000", "112901.810000", "112903.090000", "112904.370000", "112905.650000", "112906.930000", "112908.210000", "112909.490000"],
      "ContentTime": ["112429.932000", "112429.936000", "112429.939000", "112429.942000", "112429.949000", "112429.952000", "112429.955000", "112429.958000", "112429.961000", "112429.964000", "112429.967000", "112429.970000", "112429.973000", "112429.976000", "112429.979000", "112429.982000", "112429.985000", "112429.988000", "112429.991000", "112429.994000", "112429.997000", "112430.001000", "112430.004000", "112430.006000", "112430.009000", "112430.012000", "112430.015000", "112430.018000", "112430.021000", "112430.024000", "112509.926000", "112509.929000", "112509.932000", "112509.935000", "112509.938000", "112509.941000", "112509.944000", "112509.947000", "112509.950000", "112509.953000", "112509.955000", "112509.958000", "112509.961000", "112509.964000", "112509.968000", "112509.971000", "112509.974000", "112509.977000", "112509.980000", "112509.983000", "112509.986000", "112509.989000", "112509.992000", "112509.994000", "112509.997000", "112510.001000", "112510.004000", "112510.007000", "112510.010000", "112510.013000", "112510.016000", "112549.927000", "112549.930000", "112549.933000", "112549.936000", "112549.939000", "112549.954000", "112549.957000", "112549.960000", "112549.963000", "112549.966000", "112549.969000", "112549.972000", "112549.975000", "112549.978000", "112549.981000", "112549.984000", "112549.987000", "112549.990000", "112549.993000", "112549.996000", "112549.999000", "112550.002000", "112550.005000", "112550.008000", "112550.011000", "112550.014000", "112550.017000", "112550.020000", "112550.023000", "112550.026000", "112550.029000", "112550.032000", "112629.927000", "112629.931000", "112629.934000", "112629.937000", "112629.940000", "112629.943000", "112629.956000", "112629.960000", "112629.963000", "112629.966000", "112629.969000", "112629.972000", "112629.976000", "112629.979000", "112629.982000", "112629.985000", "112629.988000", "112629.991000", "112629.993000", "112629.996000", "112630.000000", "112630.003000", "112630.006000", "112630.009000", "112630.012000", "112630.015000", "112630.018000", "112630.021000", "112630.024000", "112630.027000", "112630.030000", "112709.926000", "112709.929000", "112709.932000", "112709.935000", "112709.938000", "112709.940000", "112709.943000", "112709.946000", "112709.949000", "112709.952000", "112709.955000", "112709.958000", "112709.961000", "112709.964000", "112709.967000", "112709.970000", "112709.973000", "112709.976000", "112709.978000", "112709.981000", "112709.984000", "112709.987000", "112709.990000", "112709.993000", "112709.996000", "112710.000000", "112710.003000", "112710.006000", "112710.009000", "112710.012000", "112710.015000", "112749.926000", "112749.929000", "112749.932000", "112749.935000", "112749.938000", "112749.941000", "112749.944000", "112749.947000", "112749.950000", "112749.953000", "112749.956000", "112749.959000", "112749.962000", "112749.965000", "112749.968000", "112749.971000", "112749.974000", "112749.977000", "112749.980000", "112749.983000", "112749.986000", "112749.989000", "112749.992000", "112749.995000", "112749.998000", "112750.002000", "112750.005000", "112750.008000", "112750.011000", "112750.014000", "112750.017000", "112829.927000", "112829.930000", "112829.933000", "112829.936000", "112829.939000", "112829.943000", "112829.945000", "112829.948000", "112829.951000", "112829.954000", "112829.957000", "112829.960000", "112829.963000", "112829.967000", "112829.969000", "112829.973000", "112829.976000", "112829.979000", "112829.992000", "112829.996000", "112830.000000", "112830.003000", "112830.005000", "112830.008000", "112830.011000", "112830.014000", "112830.017000", "112830.020000", "112830.023000", "112830.026000", "112830.029000", "112830.032000", "112909.927000", "112909.930000", "112909.933000", "112909.936000", "112909.940000", "112909.942000", "112909.945000", "112909.948000", "112909.951000", "112909.954000", "112909.958000", "112909.961000", "112909.964000", "112909.967000", "112909.970000", "112909.973000", "112909.976000", "112909.979000", "112909.982000", "112909.985000", "112909.988000", "112909.991000", "112909.994000", "112909.997000", "112910.001000", "112910.004000", "112910.007000", "112910.010000", "112910.013000", "112910.016000", "112910.019000", "112910.861000"],
      "InstanceCreationTime": ["112429.932000", "112429.936000", "112429.939000", "112429.942000", "112429.949000", "112429.952000", "112429.955000", "112429.958000", "112429.961000", "112429.964000", "112429.967000", "112429.970000", "112429.973000", "112429.976000", "112429.979000", "112429.982000", "112429.985000", "112429.988000", "112429.991000", "112429.994000", "112429.997000", "112430.001000", "112430.004000", "112430.006000", "112430.009000", "112430.012000", "112430.015000", "112430.018000", "112430.021000", "112430.024000", "112509.926000", "112509.929000", "112509.932000", "112509.935000", "112509.938000", "112509.941000", "112509.944000", "112509.947000", "112509.950000", "112509.953000", "112509.955000", "112509.958000", "112509.961000", "112509.964000", "112509.968000", "112509.971000", "112509.974000", "112509.977000", "112509.980000", "112509.983000", "112509.986000", "112509.989000", "112509.992000", "112509.994000", "112509.997000", "112510.001000", "112510.004000", "112510.007000", "112510.010000", "112510.013000", "112510.016000", "112549.927000", "112549.930000", "112549.933000", "112549.936000", "112549.939000", "112549.954000", "112549.957000", "112549.960000", "112549.963000", "112549.966000", "112549.969000", "112549.972000", "112549.975000", "112549.978000", "112549.981000", "112549.984000", "112549.987000", "112549.990000", "112549.993000", "112549.996000", "112549.999000", "112550.002000", "112550.005000", "112550.008000", "112550.011000", "112550.014000", "112550.017000", "112550.020000", "112550.023000", "112550.026000", "112550.029000", "112550.032000", "112629.927000", "112629.931000", "112629.934000", "112629.937000", "112629.940000", "112629.943000", "112629.956000", "112629.960000", "112629.963000", "112629.966000", "112629.969000", "112629.972000", "112629.976000", "112629.979000", "112629.982000", "112629.985000", "112629.988000", "112629.991000", "112629.993000", "112629.996000", "112630.000000", "112630.003000", "112630.006000", "112630.009000", "112630.012000", "112630.015000", "112630.018000", "112630.021000", "112630.024000", "112630.027000", "112630.030000", "112709.926000", "112709.929000", "112709.932000", "112709.935000", "112709.938000", "112709.940000", "112709.943000", "112709.946000", "112709.949000", "112709.952000", "112709.955000", "112709.958000", "112709.961000", "112709.964000", "112709.967000", "112709.970000", "112709.973000", "112709.976000", "112709.978000", "112709.981000", "112709.984000", "112709.987000", "112709.990000", "112709.993000", "112709.996000", "112710.000000", "112710.003000", "112710.006000", "112710.009000", "112710.012000", "112710.015000", "112749.926000", "112749.929000", "112749.932000", "112749.935000", "112749.938000", "112749.941000", "112749.944000", "112749.947000", "112749.950000", "112749.953000", "112749.956000", "112749.959000", "112749.962000", "112749.965000", "112749.968000", "112749.971000", "112749.974000", "112749.977000", "112749.980000", "112749.983000", "112749.986000", "112749.989000", "112749.992000", "112749.995000", "112749.998000", "112750.002000", "112750.005000", "112750.008000", "112750.011000", "112750.014000", "112750.017000", "112829.927000", "112829.930000", "112829.933000", "112829.936000", "112829.939000", "112829.943000", "112829.945000", "112829.948000", "112829.951000", "112829.954000", "112829.957000", "112829.960000", "112829.963000", "112829.967000", "112829.969000", "112829.973000", "112829.976000", "112829.979000", "112829.992000", "112829.996000", "112830.000000", "112830.003000", "112830.005000", "112830.008000", "112830.011000", "112830.014000", "112830.017000", "112830.020000", "112830.023000", "112830.026000", "112830.029000", "112830.032000", "112909.927000", "112909.930000", "112909.933000", "112909.936000", "112909.940000", "112909.942000", "112909.945000", "112909.948000", "112909.951000", "112909.954000", "112909.958000", "112909.961000", "112909.964000", "112909.967000", "112909.970000", "112909.973000", "112909.976000", "112909.979000", "112909.982000", "112909.985000", "112909.988000", "112909.991000", "112909.994000", "112909.997000", "112910.001000", "112910.004000", "112910.007000", "112910.010000", "112910.013000", "112910.016000", "112910.019000", "112910.861000"],
      "InstanceNumber": [1, 2, 3, 4, 5, 6, 7, 8, 9, 10, 11, 12, 13, 14, 15, 16, 17, 18, 19, 20, 21, 22, 23, 24, 25, 26, 27, 28, 29, 30, 31, 32, 33, 34, 35, 36, 37, 38, 39, 40, 41, 42, 43, 44, 45, 46, 47, 48, 49, 50, 51, 52, 53, 54, 55, 56, 57, 58, 59, 60, 61, 62, 63, 64, 65, 66, 67, 68, 69, 70, 71, 72, 73, 74, 75, 76, 77, 78, 79, 80, 81, 82, 83, 84, 85, 86, 87, 88, 89, 90, 91, 92, 93, 94, 95, 96, 97, 98, 99, 100, 101, 102, 103, 104, 105, 106, 107, 108, 109, 110, 111, 112, 113, 114, 115, 116, 117, 118, 119, 120, 121, 122, 123, 124, 125, 126, 127, 128, 129, 130, 131, 132, 133, 134, 135, 136, 137, 138, 139, 140, 141, 142, 143, 144, 145, 146, 147, 148, 149, 150, 151, 152, 153, 154, 155, 156, 157, 158, 159, 160, 161, 162, 163, 164, 165, 166, 167, 168, 169, 170, 171, 172, 173, 174, 175, 176, 177, 178, 179, 180, 181, 182, 183, 184, 185, 186, 187, 188, 189, 190, 191, 192, 193, 194, 195, 196, 197, 198, 199, 200, 201, 202, 203, 204, 205, 206, 207, 208, 209, 210, 211, 212, 213, 214, 215, 216, 217, 218, 219, 220, 221, 222, 223, 224, 225, 226, 227, 228, 229, 230, 231, 232, 233, 234, 235, 236, 237, 238, 239, 240, 241, 242, 243, 244, 245, 246, 247, 248, 249, 250],
      "LargestImagePixelValue": [2217, 2160, 2178, 2125, 2143, 2122, 2157, 2157, 2134, 2133, 2156, 2182, 2112, 2173, 2090, 2166, 2096, 2164, 2153, 2145, 2172, 3035, 2375, 2118, 2200, 2112, 2186, 2132, 2167, 2116, 2166, 2113, 2297, 2214, 2115, 2137, 2100, 2098, 2379, 2137, 2103, 2117, 2205, 2136, 2112, 2167, 2105, 2122, 2132, 2120, 2135, 2107, 2097, 2096, 2140, 2110, 2096, 2125, 3023, 2119, 2113, 2140, 2144, 2099, 2130, 2088, 2103, 2096, 2103, 2113, 2123, 2332, 2108, 2140, 2770, 2478, 2099, 2096, 2134, 2101, 2114, 2095, 2122, 2220, 2553, 2352, 2117, 2122, 2131, 2135, 2260, 2687, 2115, 2118, 2091, 2103, 2105, 2103, 2112, 2103, 2107, 2103, 2088, 2099, 2092, 2107, 2101, 2335, 2079, 2098, 2101, 2087, 2089, 2064, 2078, 2093, 2085, 2084, 2093, 2097, 2108, 2099, 2124, 2104, 2095, 2109, 2094, 2090, 2069, 2087, 2295, 2092, 2075, 2096, 2092, 2079, 2999, 3132, 2504, 2119, 2720, 2118, 2197, 2854, 2232, 2078, 2114, 2079, 2078, 2088, 2231, 2292, 2098, 2599, 2084, 2072, 2109, 2250, 2447, 2103, 2087, 2675, 2168, 2100, 2110, 2115, 2092, 2102, 2127, 2079, 2104, 2076, 2094, 2080, 2089, 2095, 2089, 2113, 2105, 2087, 2096, 2105, 2073, 2384, 2636, 2125, 2074, 2118, 2115, 2089, 2546, 2231, 2088, 2069, 2081, 2091, 2090, 2068, 2097, 2092, 2094, 2091, 2097, 2158, 2100, 2116, 2073, 2094, 2072, 2079, 2083, 2130, 2086, 2037, 2062, 2096, 2076, 2055, 2060, 2043, 2177, 2631, 2130, 2946, 2368, 2377, 2568, 2079, 2322, 2546, 2779, 2593, 2288, 2108, 2065, 2221, 2087, 2074, 2090, 2006, 2022, 2005, 2041, 2016, 1995, 1973, 2003, 2010, 2044, 2004],
      "WindowCenter": [629.0, 627.0, 628.0, 628.0, 628.0, 628.0, 628.0, 628.0, 628.0, 628.0, 628.0, 628.0, 628.0, 627.0, 627.0, 628.0, 628.0, 628.0, 628.0, 628.0, 629.0, 635.0, 630.0, 628.0, 630.0, 629.0, 630.0, 629.0, 629.0, 629.0, 629.0, 630.0, 631.0, 630.0, 628.0, 627.0, 627.0, 627.0, 629.0, 627.0, 627.0, 628.0, 628.0, 629.0, 628.0, 628.0, 627.0, 627.0, 628.0, 627.0, 627.0, 626.0, 626.0, 626.0, 627.0, 627.0, 627.0, 627.0, 634.0, 628.0, 627.0, 627.0, 627.0, 627.0, 627.0, 626.0, 625.0, 626.0, 627.0, 627.0, 627.0, 630.0, 628.0, 630.0, 634.0, 631.0, 628.0, 627.0, 627.0, 627.0, 627.0, 627.0, 627.0, 628.0, 632.0, 631.0, 628.0, 628.0, 627.0, 626.0, 625.0, 628.0, 623.0, 623.0, 623.0, 623.0, 625.0, 626.0, 627.0, 628.0, 628.0, 629.0, 629.0, 629.0, 628.0, 629.0, 629.0, 632.0, 629.0, 629.0, 629.0, 628.0, 627.0, 627.0, 627.0, 627.0, 627.0, 627.0, 628.0, 628.0, 628.0, 627.0, 627.0, 627.0, 627.0, 627.0, 627.0, 627.0, 626.0, 625.0, 627.0, 627.0, 627.0, 627.0, 627.0, 627.0, 634.0, 636.0, 631.0, 629.0, 633.0, 628.0, 629.0, 633.0, 629.0, 628.0, 627.0, 627.0, 626.0, 626.0, 627.0, 628.0, 626.0, 630.0, 626.0, 626.0, 626.0, 627.0, 629.0, 625.0, 625.0, 631.0, 628.0, 627.0, 627.0, 626.0, 624.0, 623.0, 623.0, 622.0, 622.0, 622.0, 622.0, 622.0, 623.0, 624.0, 625.0, 626.0, 627.0, 627.0, 627.0, 628.0, 628.0, 630.0, 632.0, 629.0, 629.0, 629.0, 629.0, 628.0, 632.0, 629.0, 628.0, 628.0, 628.0, 628.0, 628.0, 627.0, 628.0, 626.0, 625.0, 624.0, 623.0, 623.0, 623.0, 623.0, 624.0, 624.0, 625.0, 625.0, 626.0, 626.0, 626.0, 626.0, 626.0, 627.0, 627.0, 627.0, 626.0, 625.0, 627.0, 631.0, 627.0, 633.0, 628.0, 629.0, 630.0, 626.0, 627.0, 630.0, 632.0, 631.0, 629.0, 628.0, 627.0, 627.0, 626.0, 626.0, 626.0, 625.0, 625.0, 625.0, 626.0, 625.0, 625.0, 625.0, 626.0, 627.0, 627.0, 626.0],
      "WindowWidth": [1319.0, 1314.0, 1315.0, 1315.0, 1315.0, 1315.0, 1315.0, 1316.0, 1315.0, 1316.0, 1316.0, 1315.0, 1315.0, 1314.0, 1314.0, 1315.0, 1315.0, 1315.0, 1316.0, 1315.0, 1316.0, 1327.0, 1320.0, 1316.0, 1319.0, 1318.0, 1319.0, 1319.0, 1318.0, 1317.0, 1318.0, 1319.0, 1321.0, 1318.0, 1315.0, 1313.0, 1314.0, 1313.0, 1317.0, 1314.0, 1314.0, 1315.0, 1316.0, 1317.0, 1316.0, 1314.0, 1314.0, 1314.0, 1315.0, 1313.0, 1313.0, 1312.0, 1312.0, 1312.0, 1314.0, 1314.0, 1314.0, 1314.0, 1327.0, 1315.0, 1314.0, 1314.0, 1314.0, 1313.0, 1312.0, 1310.0, 1309.0, 1312.0, 1313.0, 1314.0, 1314.0, 1318.0, 1316.0, 1319.0, 1327.0, 1320.0, 1315.0, 1313.0, 1314.0, 1315.0, 1314.0, 1313.0, 1314.0, 1315.0, 1324.0, 1321.0, 1316.0, 1315.0, 1314.0, 1310.0, 1309.0, 1313.0, 1304.0, 1304.0, 1304.0, 1305.0, 1309.0, 1310.0, 1313.0, 1316.0, 1317.0, 1317.0, 1318.0, 1317.0, 1317.0, 1318.0, 1318.0, 1323.0, 1319.0, 1318.0, 1317.0, 1315.0, 1313.0, 1313.0, 1313.0, 1313.0, 1314.0, 1314.0, 1316.0, 1316.0, 1316.0, 1314.0, 1313.0, 1313.0, 1313.0, 1313.0, 1314.0, 1313.0, 1311.0, 1310.0, 1314.0, 1313.0, 1314.0, 1314.0, 1314.0, 1314.0, 1326.0, 1329.0, 1321.0, 1317.0, 1325.0, 1315.0, 1317.0, 1325.0, 1318.0, 1315.0, 1314.0, 1313.0, 1310.0, 1310.0, 1312.0, 1315.0, 1312.0, 1318.0, 1312.0, 1310.0, 1311.0, 1312.0, 1316.0, 1310.0, 1310.0, 1320.0, 1315.0, 1313.0, 1312.0, 1310.0, 1305.0, 1305.0, 1304.0, 1302.0, 1302.0, 1301.0, 1302.0, 1303.0, 1305.0, 1307.0, 1309.0, 1311.0, 1313.0, 1314.0, 1314.0, 1315.0, 1316.0, 1319.0, 1323.0, 1317.0, 1317.0, 1318.0, 1318.0, 1316.0, 1322.0, 1317.0, 1315.0, 1315.0, 1317.0, 1315.0, 1315.0, 1313.0, 1314.0, 1312.0, 1310.0, 1307.0, 1304.0, 1305.0, 1304.0, 1305.0, 1306.0, 1306.0, 1308.0, 1310.0, 1310.0, 1312.0, 1312.0, 1311.0, 1312.0, 1313.0, 1313.0, 1313.0, 1312.0, 1310.0, 1313.0, 1320.0, 1314.0, 1324.0, 1316.0, 1316.0, 1317.0, 1311.0, 1314.0, 1317.0, 1321.0, 1320.0, 1318.0, 1316.0, 1313.0, 1313.0, 1311.0, 1311.0, 1311.0, 1311.0, 1310.0, 1309.0, 1311.0, 1310.0, 1309.0, 1310.0, 1310.0, 1313.0, 1313.0, 1311.0]
    },
    "slices": {}
  }
}