{
  "AcquisitionMatrixPE": 108,
  "AcquisitionNumber": 1,
  "AcquisitionTime": "11:31:40.110000",
  "BandwidthPerPixelPhaseEncode": 15.964,
  "BaseResolution": 108,
  "BodyPartExamined": "BRAIN",
  "ConsistencyInfo": "N4_VE11C_LATEST_20160120",
  "ConversionSoftware": "dcm2niix",
  "ConversionSoftwareVersion": "v1.0.20180622 GCC6.3.0",
  "DerivedVendorReportedEchoSpacing": 0.000580009,
  "DeviceSerialNumber": "66054",
  "DwellTime": 2.1e-06,
  "EchoTime": 0.031,
  "EchoTrainLength": 95,
  "EffectiveEchoSpacing": 0.000580009,
  "FlipAngle": 64,
  "ImageOrientationPatientDICOM": [0.988706, 0.144388, 0.0401435, -0.117896, 0.914743, -0.386452],
  "ImageType": [
    "ORIGINAL",
    "PRIMARY",
    "M",
    "ND",
    "MOSAIC"
],
  "InPlanePhaseEncodingDirectionDICOM": "COL",
  "InstitutionAddress": "Chemin_des_Mines_9_Geneve_District_CH_1211",
  "InstitutionName": "Fondation_Campus_Biotech_Geneva",
  "InstitutionalDepartmentName": "Department",
  "MRAcquisitionType": "2D",
  "MagneticFieldStrength": 3,
  "Manufacturer": "Siemens",
  "ManufacturersModelName": "Prisma",
  "Modality": "MR",
  "MultibandAccelerationFactor": 4,
  "PartialFourier": 0.875,
  "PatientPosition": "HFS",
  "PercentPhaseFOV": 100,
  "PhaseEncodingDirection": "j-",
  "PhaseEncodingSteps": 95,
  "PhaseResolution": 1,
  "PixelBandwidth": 2205,
  "ProcedureStepDescription": "J.DRM_Michael",
  "ProtocolName": "Run3_bold_s4_TR1.28",
  "PulseSequenceDetails": "%SiemensSeq%_ep2d_bold",
  "ReceiveCoilActiveElements": "HC1-7;NC1,2",
  "ReceiveCoilName": "HeadNeck_64",
  "ReconMatrixPE": 108,
  "RepetitionTime": 1.28,
  "SAR": 0.0704681,
  "ScanOptions": "PFP_FS",
  "ScanningSequence": "EP",
  "SequenceName": "_epfid2d1_108",
  "SequenceVariant": "SK",
  "SeriesDescription": "Run3_bold_s4_TR1.28",
  "SeriesNumber": 8,
  "ShimSetting": [-1252, -11685, 6458, 548, 162, -221, -53, 58],
  "SliceThickness": 2,
  "SliceTiming": [0.945, 0, 0.63, 0.08, 0.71, 0.1575, 0.7875, 0.2375, 0.8675, 0.395, 1.025, 0.4725, 1.1025, 0.5525, 1.1825, 0.315, 0.945, 0, 0.63, 0.08, 0.71, 0.1575, 0.7875, 0.2375, 0.8675, 0.395, 1.025, 0.4725, 1.1025, 0.5525, 1.1825, 0.315, 0.945, 0, 0.63, 0.08, 0.71, 0.1575, 0.7875, 0.2375, 0.8675, 0.395, 1.025, 0.4725, 1.1025, 0.5525, 1.1825, 0.315, 0.945, 0, 0.63, 0.08, 0.71, 0.1575, 0.7875, 0.2375, 0.8675, 0.395, 1.025, 0.4725, 1.1025, 0.5525, 1.1825, 0.315],
  "SoftwareVersions": "syngo_MR_E11",
  "SpacingBetweenSlices": 2,
  "StationName": "AWP66054",
  "TaskName": "main",
  "TotalReadoutTime": 0.0620609,
  "TxRefAmp": 248.348,
  "dcmmeta_affine": [
    [-1.968258261680603, -0.23470062017440796, 0.18504051864147186, 112.74041748046875],
    [-0.2874397337436676, 1.821016550064087, -0.7547104954719543, -57.46609115600586],
    [0.07991540431976318, 0.7693265676498413, 1.8428707122802734, -95.6504135131836],
    [0.0, 0.0, 0.0, 1.0]
],
  "dcmmeta_reorient_transform": [
    [0.0, -1.0, 0.0, 107.0],
    [1.0, 0.0, 0.0, 0.0],
    [0.0, 0.0, 1.0, 0.0],
    [0.0, 0.0, 0.0, 1.0]
],
  "dcmmeta_shape": [108, 108, 64, 373],
  "dcmmeta_slice_dim": 2,
  "dcmmeta_version": 0.6,
  "global": {
    "const": {
      "AccessionNumber": "",
      "AcquisitionMatrix": [108, 0, 0, 108],
      "AngioFlag": "N",
      "BitsAllocated": 16,
      "BitsStored": 12,
      "BodyPartExamined": "BRAIN",
      "Columns": 864,
      "EchoNumbers": 1,
      "EchoTime": 31.0,
      "EchoTrainLength": 95,
      "FlipAngle": 64.0,
      "HighBit": 11,
      "ImageOrientationPatient": [0.98870648136306, 0.14438832735409, 0.04014355034836, -0.1178961251664, 0.91474315787882, -0.3864524017064],
      "ImagePositionPatient": [-742.91225613018, -934.37913067755, 247.26494087746],
      "ImageType": [
        "ORIGINAL",
        "PRIMARY",
        "M",
        "ND",
        "MOSAIC"
],
      "ImagedNucleus": "1H",
      "ImagingFrequency": 123.257413,
      "InPlanePhaseEncodingDirection": "COL",
      "MRAcquisitionType": "2D",
      "MagneticFieldStrength": 3.0,
      "Manufacturer": "SIEMENS",
      "ManufacturerModelName": "Prisma",
      "Modality": "MR",
      "NumberOfAverages": 1.0,
      "NumberOfPhaseEncodingSteps": 95,
      "PercentPhaseFieldOfView": 100.0,
      "PercentSampling": 100.0,
      "PerformedProcedureStepStartTime": "110109.021000",
      "PhotometricInterpretation": "MONOCHROME2",
      "PixelBandwidth": 2205.0,
      "PixelRepresentation": 0,
      "PixelSpacing": [1.990740776062, 1.990740776062],
      "PositionReferenceIndicator": "",
      "ProtocolName": "Run3_bold_s4_TR1.28",
      "RepetitionTime": 1280.0,
      "Rows": 864,
      "SAR": 0.07046805207619,
      "SamplesPerPixel": 1,
      "ScanOptions": [
        "PFP",
        "FS"
],
      "ScanningSequence": "EP",
      "SequenceName": "*epfid2d1_108",
      "SequenceVariant": "SK",
      "SeriesDescription": "Run3_bold_s4_TR1.28",
      "SeriesNumber": 8,
      "SeriesTime": "113209.785000",
      "SliceLocation": -56.019768518516,
      "SliceThickness": 2.0,
      "SmallestImagePixelValue": 0,
      "SoftwareVersions": "syngo MR E11",
      "SpacingBetweenSlices": 2.0000000530406,
      "SpecificCharacterSet": "ISO_IR 100",
      "StudyID": "1",
      "StudyTime": "110108.840000",
      "TransmitCoilName": "Body",
      "VariableFlipAngleFlag": "N",
      "WindowCenterWidthExplanation": "Algo1",
      "dBdt": 0.0},
    "slices": {}
  },
  "time": {
    "samples": {
      "AcquisitionNumber": [1, 2, 3, 4, 5, 6, 7, 8, 9, 10, 11, 12, 13, 14, 15, 16, 17, 18, 19, 20, 21, 22, 23, 24, 25, 26, 27, 28, 29, 30, 31, 32, 33, 34, 35, 36, 37, 38, 39, 40, 41, 42, 43, 44, 45, 46, 47, 48, 49, 50, 51, 52, 53, 54, 55, 56, 57, 58, 59, 60, 61, 62, 63, 64, 65, 66, 67, 68, 69, 70, 71, 72, 73, 74, 75, 76, 77, 78, 79, 80, 81, 82, 83, 84, 85, 86, 87, 88, 89, 90, 91, 92, 93, 94, 95, 96, 97, 98, 99, 100, 101, 102, 103, 104, 105, 106, 107, 108, 109, 110, 111, 112, 113, 114, 115, 116, 117, 118, 119, 120, 121, 122, 123, 124, 125, 126, 127, 128, 129, 130, 131, 132, 133, 134, 135, 136, 137, 138, 139, 140, 141, 142, 143, 144, 145, 146, 147, 148, 149, 150, 151, 152, 153, 154, 155, 156, 157, 158, 159, 160, 161, 162, 163, 164, 165, 166, 167, 168, 169, 170, 171, 172, 173, 174, 175, 176, 177, 178, 179, 180, 181, 182, 183, 184, 185, 186, 187, 188, 189, 190, 191, 192, 193, 194, 195, 196, 197, 198, 199, 200, 201, 202, 203, 204, 205, 206, 207, 208, 209, 210, 211, 212, 213, 214, 215, 216, 217, 218, 219, 220, 221, 222, 223, 224, 225, 226, 227, 228, 229, 230, 231, 232, 233, 234, 235, 236, 237, 238, 239, 240, 241, 242, 243, 244, 245, 246, 247, 248, 249, 250, 251, 252, 253, 254, 255, 256, 257, 258, 259, 260, 261, 262, 263, 264, 265, 266, 267, 268, 269, 270, 271, 272, 273, 274, 275, 276, 277, 278, 279, 280, 281, 282, 283, 284, 285, 286, 287, 288, 289, 290, 291, 292, 293, 294, 295, 296, 297, 298, 299, 300, 301, 302, 303, 304, 305, 306, 307, 308, 309, 310, 311, 312, 313, 314, 315, 316, 317, 318, 319, 320, 321, 322, 323, 324, 325, 326, 327, 328, 329, 330, 331, 332, 333, 334, 335, 336, 337, 338, 339, 340, 341, 342, 343, 344, 345, 346, 347, 348, 349, 350, 351, 352, 353, 354, 355, 356, 357, 358, 359, 360, 361, 362, 363, 364, 365, 366, 367, 368, 369, 370, 371, 372, 373],
      "AcquisitionTime": ["113140.110000", "113141.390000", "113142.670000", "113143.950000", "113145.230000", "113146.510000", "113147.790000", "113149.070000", "113150.350000", "113151.630000", "113152.910000", "113154.190000", "113155.470000", "113156.750000", "113158.030000", "113159.310000", "113200.590000", "113201.870000", "113203.150000", "113204.430000", "113205.710000", "113206.990000", "113208.270000", "113209.550000", "113210.830000", "113212.110000", "113213.390000", "113214.670000", "113215.950000", "113217.230000", "113218.510000", "113219.790000", "113221.070000", "113222.350000", "113223.630000", "113224.910000", "113226.190000", "113227.470000", "113228.750000", "113230.030000", "113231.310000", "113232.590000", "113233.870000", "113235.150000", "113236.430000", "113237.710000", "113238.990000", "113240.270000", "113241.550000", "113242.830000", "113244.110000", "113245.390000", "113246.670000", "113247.950000", "113249.230000", "113250.510000", "113251.790000", "113253.070000", "113254.350000", "113255.630000", "113256.910000", "113258.190000", "113259.470000", "113300.750000", "113302.030000", "113303.310000", "113304.590000", "113305.870000", "113307.150000", "113308.430000", "113309.710000", "113310.990000", "113312.270000", "113313.550000", "113314.830000", "113316.110000", "113317.390000", "113318.670000", "113319.950000", "113321.230000", "113322.510000", "113323.790000", "113325.070000", "113326.350000", "113327.630000", "113328.910000", "113330.190000", "113331.470000", "113332.750000", "113334.030000", "113335.310000", "113336.590000", "113337.870000", "113339.150000", "113340.430000", "113341.710000", "113342.990000", "113344.270000", "113345.550000", "113346.830000", "113348.110000", "113349.390000", "113350.670000", "113351.950000", "113353.230000", "113354.510000", "113355.790000", "113357.070000", "113358.350000", "113359.630000", "113400.910000", "113402.190000", "113403.470000", "113404.750000", "113406.030000", "113407.310000", "113408.590000", "113409.870000", "113411.150000", "113412.430000", "113413.710000", "113414.990000", "113416.270000", "113417.550000", "113418.830000", "113420.110000", "113421.390000", "113422.670000", "113423.950000", "113425.230000", "113426.510000", "113427.790000", "113429.070000", "113430.350000", "113431.630000", "113432.910000", "113434.190000", "113435.470000", "113436.750000", "113438.030000", "113439.310000", "113440.590000", "113441.870000", "113443.150000", "113444.430000", "113445.710000", "113446.990000", "113448.270000", "113449.550000", "113450.830000", "113452.110000", "113453.390000", "113454.670000", "113455.950000", "113457.230000", "113458.510000", "113459.790000", "113501.070000", "113502.350000", "113503.630000", "113504.910000", "113506.190000", "113507.470000", "113508.750000", "113510.030000", "113511.310000", "113512.590000", "113513.870000", "113515.150000", "113516.430000", "113517.710000", "113518.990000", "113520.270000", "113521.550000", "113522.830000", "113524.110000", "113525.390000", "113526.670000", "113527.950000", "113529.230000", "113530.510000", "113531.790000", "113533.070000", "113534.350000", "113535.630000", "113536.910000", "113538.190000", "113539.470000", "113540.750000", "113542.030000", "113543.310000", "113544.590000", "113545.870000", "113547.150000", "113548.430000", "113549.710000", "113550.990000", "113552.270000", "113553.550000", "113554.830000", "113556.110000", "113557.390000", "113558.670000", "113559.950000", "113601.230000", "113602.510000", "113603.790000", "113605.070000", "113606.350000", "113607.630000", "113608.910000", "113610.190000", "113611.470000", "113612.750000", "113614.030000", "113615.310000", "113616.590000", "113617.870000", "113619.150000", "113620.430000", "113621.710000", "113622.990000", "113624.270000", "113625.550000", "113626.830000", "113628.110000", "113629.390000", "113630.670000", "113631.950000", "113633.230000", "113634.510000", "113635.790000", "113637.070000", "113638.350000", "113639.630000", "113640.910000", "113642.190000", "113643.470000", "113644.750000", "113646.030000", "113647.310000", "113648.590000", "113649.870000", "113651.150000", "113652.430000", "113653.710000", "113654.990000", "113656.270000", "113657.550000", "113658.830000", "113700.110000", "113701.390000", "113702.670000", "113703.950000", "113705.230000", "113706.510000", "113707.790000", "113709.070000", "113710.350000", "113711.630000", "113712.910000", "113714.190000", "113715.470000", "113716.750000", "113718.030000", "113719.310000", "113720.590000", "113721.870000", "113723.150000", "113724.430000", "113725.710000", "113726.990000", "113728.270000", "113729.550000", "113730.830000", "113732.110000", "113733.390000", "113734.670000", "113735.950000", "113737.230000", "113738.510000", "113739.790000", "113741.070000", "113742.350000", "113743.630000", "113744.910000", "113746.190000", "113747.470000", "113748.750000", "113750.030000", "113751.310000", "113752.590000", "113753.870000", "113755.150000", "113756.430000", "113757.710000", "113758.990000", "113800.270000", "113801.550000", "113802.830000", "113804.110000", "113805.390000", "113806.670000", "113807.950000", "113809.230000", "113810.510000", "113811.790000", "113813.070000", "113814.350000", "113815.630000", "113816.910000", "113818.190000", "113819.470000", "113820.750000", "113822.030000", "113823.310000", "113824.590000", "113825.870000", "113827.150000", "113828.430000", "113829.710000", "113830.990000", "113832.270000", "113833.550000", "113834.830000", "113836.110000", "113837.390000", "113838.670000", "113839.950000", "113841.230000", "113842.510000", "113843.790000", "113845.070000", "113846.350000", "113847.630000", "113848.910000", "113850.190000", "113851.470000", "113852.750000", "113854.030000", "113855.310000", "113856.590000", "113857.870000", "113859.150000", "113900.430000", "113901.710000", "113902.990000", "113904.270000", "113905.550000", "113906.830000", "113908.110000", "113909.390000", "113910.670000", "113911.950000", "113913.230000", "113914.510000", "113915.790000", "113917.070000", "113918.350000", "113919.630000", "113920.910000", "113922.190000", "113923.470000", "113924.750000", "113926.030000", "113927.310000", "113928.590000", "113929.870000", "113931.150000", "113932.430000", "113933.710000", "113934.990000", "113936.270000"],
      "ContentTime": ["113209.789000", "113209.792000", "113209.795000", "113209.798000", "113209.801000", "113209.804000", "113209.807000", "113209.809000", "113209.812000", "113209.815000", "113209.818000", "113209.821000", "113209.824000", "113209.834000", "113209.837000", "113209.840000", "113209.843000", "113209.846000", "113209.849000", "113209.852000", "113209.854000", "113209.857000", "113209.860000", "113249.785000", "113249.788000", "113249.791000", "113249.802000", "113249.804000", "113249.807000", "113249.810000", "113249.813000", "113249.816000", "113249.819000", "113249.822000", "113249.825000", "113249.828000", "113249.831000", "113249.834000", "113249.836000", "113249.839000", "113249.842000", "113249.845000", "113249.848000", "113249.851000", "113249.854000", "113249.857000", "113249.859000", "113249.862000", "113249.865000", "113249.868000", "113249.871000", "113249.874000", "113249.877000", "113249.879000", "113329.785000", "113329.788000", "113329.791000", "113329.794000", "113329.797000", "113329.799000", "113329.802000", "113329.805000", "113329.808000", "113329.811000", "113329.814000", "113329.817000", "113329.820000", "113329.822000", "113329.825000", "113329.828000", "113329.831000", "113329.834000", "113329.837000", "113329.840000", "113329.843000", "113329.846000", "113329.848000", "113329.851000", "113329.854000", "113329.857000", "113329.860000", "113329.863000", "113329.866000", "113329.869000", "113329.871000", "113409.784000", "113409.787000", "113409.790000", "113409.793000", "113409.796000", "113409.799000", "113409.802000", "113409.805000", "113409.808000", "113409.811000", "113409.814000", "113409.817000", "113409.820000", "113409.823000", "113409.826000", "113409.828000", "113409.831000", "113409.834000", "113409.837000", "113409.840000", "113409.843000", "113409.846000", "113409.849000", "113409.852000", "113409.855000", "113409.858000", "113409.861000", "113409.863000", "113409.866000", "113409.869000", "113409.872000", "113409.882000", "113449.784000", "113449.787000", "113449.790000", "113449.793000", "113449.796000", "113449.798000", "113449.801000", "113449.804000", "113449.807000", "113449.810000", "113449.813000", "113449.816000", "113449.819000", "113449.822000", "113449.825000", "113449.828000", "113449.831000", "113449.834000", "113449.836000", "113449.839000", "113449.842000", "113449.845000", "113449.848000", "113449.860000", "113449.863000", "113449.866000", "113449.869000", "113449.872000", "113449.875000", "113449.878000", "113449.881000", "113529.785000", "113529.788000", "113529.791000", "113529.794000", "113529.797000", "113529.800000", "113529.803000", "113529.806000", "113529.809000", "113529.812000", "113529.815000", "113529.818000", "113529.821000", "113529.824000", "113529.827000", "113529.830000", "113529.832000", "113529.835000", "113529.838000", "113529.841000", "113529.844000", "113529.847000", "113529.850000", "113529.853000", "113529.856000", "113529.859000", "113529.862000", "113529.865000", "113529.868000", "113529.870000", "113529.874000", "113609.785000", "113609.788000", "113609.791000", "113609.794000", "113609.797000", "113609.800000", "113609.803000", "113609.806000", "113609.809000", "113609.812000", "113609.814000", "113609.817000", "113609.820000", "113609.823000", "113609.826000", "113609.829000", "113609.832000", "113609.835000", "113609.838000", "113609.841000", "113609.844000", "113609.847000", "113609.850000", "113609.852000", "113609.855000", "113609.859000", "113609.861000", "113609.864000", "113609.867000", "113609.870000", "113609.873000", "113649.784000", "113649.787000", "113649.790000", "113649.793000", "113649.796000", "113649.799000", "113649.802000", "113649.805000", "113649.808000", "113649.810000", "113649.813000", "113649.816000", "113649.819000", "113649.822000", "113649.825000", "113649.828000", "113649.831000", "113649.834000", "113649.837000", "113649.839000", "113649.842000", "113649.845000", "113649.848000", "113649.851000", "113649.854000", "113649.857000", "113649.860000", "113649.863000", "113649.866000", "113649.869000", "113649.872000", "113649.875000", "113709.784000", "113709.787000", "113709.790000", "113709.793000", "113709.796000", "113709.799000", "113709.802000", "113709.804000", "113709.808000", "113709.810000", "113709.813000", "113709.816000", "113709.819000", "113709.822000", "113709.825000", "113749.785000", "113749.788000", "113749.791000", "113749.794000", "113749.797000", "113749.800000", "113749.803000", "113749.806000", "113749.809000", "113749.812000", "113749.815000", "113749.818000", "113749.820000", "113749.824000", "113749.826000", "113749.829000", "113749.832000", "113749.835000", "113749.838000", "113749.841000", "113749.844000", "113749.847000", "113749.850000", "113749.853000", "113749.856000", "113749.859000", "113749.862000", "113749.864000", "113749.867000", "113749.870000", "113749.873000", "113749.876000", "113829.785000", "113829.788000", "113829.791000", "113829.794000", "113829.797000", "113829.800000", "113829.803000", "113829.806000", "113829.809000", "113829.811000", "113829.814000", "113829.817000", "113829.820000", "113829.823000", "113829.826000", "113829.829000", "113829.832000", "113829.835000", "113829.838000", "113829.841000", "113829.844000", "113829.846000", "113829.849000", "113829.852000", "113829.855000", "113829.858000", "113829.861000", "113829.864000", "113829.867000", "113829.870000", "113829.881000", "113909.784000", "113909.787000", "113909.790000", "113909.793000", "113909.796000", "113909.798000", "113909.801000", "113909.804000", "113909.807000", "113909.810000", "113909.813000", "113909.816000", "113909.819000", "113909.822000", "113909.825000", "113909.828000", "113909.830000", "113909.834000", "113909.837000", "113909.839000", "113909.842000", "113909.845000", "113909.848000", "113909.851000", "113909.854000", "113909.857000", "113909.860000", "113909.863000", "113909.866000", "113909.869000", "113909.872000", "113937.313000", "113937.318000", "113937.323000", "113937.326000", "113937.329000", "113937.333000", "113937.340000", "113937.343000", "113937.346000", "113937.349000", "113937.353000", "113937.356000", "113937.359000", "113937.361000", "113937.364000", "113937.367000", "113937.370000", "113937.373000", "113937.376000", "113937.379000", "113937.382000", "113937.385000"],
      "InstanceCreationTime": ["113209.789000", "113209.792000", "113209.795000", "113209.798000", "113209.801000", "113209.804000", "113209.807000", "113209.809000", "113209.812000", "113209.815000", "113209.818000", "113209.821000", "113209.824000", "113209.834000", "113209.837000", "113209.840000", "113209.843000", "113209.846000", "113209.849000", "113209.852000", "113209.854000", "113209.857000", "113209.860000", "113249.785000", "113249.788000", "113249.791000", "113249.802000", "113249.804000", "113249.807000", "113249.810000", "113249.813000", "113249.816000", "113249.819000", "113249.822000", "113249.825000", "113249.828000", "113249.831000", "113249.834000", "113249.836000", "113249.839000", "113249.842000", "113249.845000", "113249.848000", "113249.851000", "113249.854000", "113249.857000", "113249.859000", "113249.862000", "113249.865000", "113249.868000", "113249.871000", "113249.874000", "113249.877000", "113249.879000", "113329.785000", "113329.788000", "113329.791000", "113329.794000", "113329.797000", "113329.799000", "113329.802000", "113329.805000", "113329.808000", "113329.811000", "113329.814000", "113329.817000", "113329.820000", "113329.822000", "113329.825000", "113329.828000", "113329.831000", "113329.834000", "113329.837000", "113329.840000", "113329.843000", "113329.846000", "113329.848000", "113329.851000", "113329.854000", "113329.857000", "113329.860000", "113329.863000", "113329.866000", "113329.869000", "113329.871000", "113409.784000", "113409.787000", "113409.790000", "113409.793000", "113409.796000", "113409.799000", "113409.802000", "113409.805000", "113409.808000", "113409.811000", "113409.814000", "113409.817000", "113409.820000", "113409.823000", "113409.826000", "113409.828000", "113409.831000", "113409.834000", "113409.837000", "113409.840000", "113409.843000", "113409.846000", "113409.849000", "113409.852000", "113409.855000", "113409.858000", "113409.861000", "113409.863000", "113409.866000", "113409.869000", "113409.872000", "113409.882000", "113449.784000", "113449.787000", "113449.790000", "113449.793000", "113449.796000", "113449.798000", "113449.801000", "113449.804000", "113449.807000", "113449.810000", "113449.813000", "113449.816000", "113449.819000", "113449.822000", "113449.825000", "113449.828000", "113449.831000", "113449.834000", "113449.836000", "113449.839000", "113449.842000", "113449.845000", "113449.848000", "113449.860000", "113449.863000", "113449.866000", "113449.869000", "113449.872000", "113449.875000", "113449.878000", "113449.881000", "113529.785000", "113529.788000", "113529.791000", "113529.794000", "113529.797000", "113529.800000", "113529.803000", "113529.806000", "113529.809000", "113529.812000", "113529.815000", "113529.818000", "113529.821000", "113529.824000", "113529.827000", "113529.830000", "113529.832000", "113529.835000", "113529.838000", "113529.841000", "113529.844000", "113529.847000", "113529.850000", "113529.853000", "113529.856000", "113529.859000", "113529.862000", "113529.865000", "113529.868000", "113529.870000", "113529.874000", "113609.785000", "113609.788000", "113609.791000", "113609.794000", "113609.797000", "113609.800000", "113609.803000", "113609.806000", "113609.809000", "113609.812000", "113609.814000", "113609.817000", "113609.820000", "113609.823000", "113609.826000", "113609.829000", "113609.832000", "113609.835000", "113609.838000", "113609.841000", "113609.844000", "113609.847000", "113609.850000", "113609.852000", "113609.855000", "113609.859000", "113609.861000", "113609.864000", "113609.867000", "113609.870000", "113609.873000", "113649.784000", "113649.787000", "113649.790000", "113649.793000", "113649.796000", "113649.799000", "113649.802000", "113649.805000", "113649.808000", "113649.810000", "113649.813000", "113649.816000", "113649.819000", "113649.822000", "113649.825000", "113649.828000", "113649.831000", "113649.834000", "113649.837000", "113649.839000", "113649.842000", "113649.845000", "113649.848000", "113649.851000", "113649.854000", "113649.857000", "113649.860000", "113649.863000", "113649.866000", "113649.869000", "113649.872000", "113649.875000", "113709.784000", "113709.787000", "113709.790000", "113709.793000", "113709.796000", "113709.799000", "113709.802000", "113709.804000", "113709.808000", "113709.810000", "113709.813000", "113709.816000", "113709.819000", "113709.822000", "113709.825000", "113749.785000", "113749.788000", "113749.791000", "113749.794000", "113749.797000", "113749.800000", "113749.803000", "113749.806000", "113749.809000", "113749.812000", "113749.815000", "113749.818000", "113749.820000", "113749.824000", "113749.826000", "113749.829000", "113749.832000", "113749.835000", "113749.838000", "113749.841000", "113749.844000", "113749.847000", "113749.850000", "113749.853000", "113749.856000", "113749.859000", "113749.862000", "113749.864000", "113749.867000", "113749.870000", "113749.873000", "113749.876000", "113829.785000", "113829.788000", "113829.791000", "113829.794000", "113829.797000", "113829.800000", "113829.803000", "113829.806000", "113829.809000", "113829.811000", "113829.814000", "113829.817000", "113829.820000", "113829.823000", "113829.826000", "113829.829000", "113829.832000", "113829.835000", "113829.838000", "113829.841000", "113829.844000", "113829.846000", "113829.849000", "113829.852000", "113829.855000", "113829.858000", "113829.861000", "113829.864000", "113829.867000", "113829.870000", "113829.881000", "113909.784000", "113909.787000", "113909.790000", "113909.793000", "113909.796000", "113909.798000", "113909.801000", "113909.804000", "113909.807000", "113909.810000", "113909.813000", "113909.816000", "113909.819000", "113909.822000", "113909.825000", "113909.828000", "113909.830000", "113909.834000", "113909.837000", "113909.839000", "113909.842000", "113909.845000", "113909.848000", "113909.851000", "113909.854000", "113909.857000", "113909.860000", "113909.863000", "113909.866000", "113909.869000", "113909.872000", "113937.313000", "113937.318000", "113937.323000", "113937.326000", "113937.329000", "113937.333000", "113937.340000", "113937.343000", "113937.346000", "113937.349000", "113937.353000", "113937.356000", "113937.359000", "113937.361000", "113937.364000", "113937.367000", "113937.370000", "113937.373000", "113937.376000", "113937.379000", "113937.382000", "113937.385000"],
      "InstanceNumber": [1, 2, 3, 4, 5, 6, 7, 8, 9, 10, 11, 12, 13, 14, 15, 16, 17, 18, 19, 20, 21, 22, 23, 24, 25, 26, 27, 28, 29, 30, 31, 32, 33, 34, 35, 36, 37, 38, 39, 40, 41, 42, 43, 44, 45, 46, 47, 48, 49, 50, 51, 52, 53, 54, 55, 56, 57, 58, 59, 60, 61, 62, 63, 64, 65, 66, 67, 68, 69, 70, 71, 72, 73, 74, 75, 76, 77, 78, 79, 80, 81, 82, 83, 84, 85, 86, 87, 88, 89, 90, 91, 92, 93, 94, 95, 96, 97, 98, 99, 100, 101, 102, 103, 104, 105, 106, 107, 108, 109, 110, 111, 112, 113, 114, 115, 116, 117, 118, 119, 120, 121, 122, 123, 124, 125, 126, 127, 128, 129, 130, 131, 132, 133, 134, 135, 136, 137, 138, 139, 140, 141, 142, 143, 144, 145, 146, 147, 148, 149, 150, 151, 152, 153, 154, 155, 156, 157, 158, 159, 160, 161, 162, 163, 164, 165, 166, 167, 168, 169, 170, 171, 172, 173, 174, 175, 176, 177, 178, 179, 180, 181, 182, 183, 184, 185, 186, 187, 188, 189, 190, 191, 192, 193, 194, 195, 196, 197, 198, 199, 200, 201, 202, 203, 204, 205, 206, 207, 208, 209, 210, 211, 212, 213, 214, 215, 216, 217, 218, 219, 220, 221, 222, 223, 224, 225, 226, 227, 228, 229, 230, 231, 232, 233, 234, 235, 236, 237, 238, 239, 240, 241, 242, 243, 244, 245, 246, 247, 248, 249, 250, 251, 252, 253, 254, 255, 256, 257, 258, 259, 260, 261, 262, 263, 264, 265, 266, 267, 268, 269, 270, 271, 272, 273, 274, 275, 276, 277, 278, 279, 280, 281, 282, 283, 284, 285, 286, 287, 288, 289, 290, 291, 292, 293, 294, 295, 296, 297, 298, 299, 300, 301, 302, 303, 304, 305, 306, 307, 308, 309, 310, 311, 312, 313, 314, 315, 316, 317, 318, 319, 320, 321, 322, 323, 324, 325, 326, 327, 328, 329, 330, 331, 332, 333, 334, 335, 336, 337, 338, 339, 340, 341, 342, 343, 344, 345, 346, 347, 348, 349, 350, 351, 352, 353, 354, 355, 356, 357, 358, 359, 360, 361, 362, 363, 364, 365, 366, 367, 368, 369, 370, 371, 372, 373],
