{
  "AcquisitionMatrixPE": 108,
  "AcquisitionNumber": 1,
  "AcquisitionTime": "12:03:30.680000",
  "BandwidthPerPixelPhaseEncode": 15.964,
  "BaseResolution": 108,
  "BodyPartExamined": "BRAIN",
  "ConsistencyInfo": "N4_VE11C_LATEST_20160120",
  "ConversionSoftware": "dcm2niix",
  "ConversionSoftwareVersion": "v1.0.20180622 GCC6.3.0",
  "DerivedVendorReportedEchoSpacing": 0.000580009,
  "DeviceSerialNumber": "66054",
  "DwellTime": 2.1e-06,
  "EchoTime": 0.031,
  "EchoTrainLength": 95,
  "EffectiveEchoSpacing": 0.000580009,
  "FlipAngle": 64,
  "ImageOrientationPatientDICOM": [0.988706, 0.144388, 0.0401435, -0.117896, 0.914743, -0.386452],
  "ImageType": [
    "ORIGINAL",
    "PRIMARY",
    "M",
    "ND",
    "MOSAIC"
],
  "InPlanePhaseEncodingDirectionDICOM": "COL",
  "InstitutionAddress": "Chemin_des_Mines_9_Geneve_District_CH_1211",
  "InstitutionName": "Fondation_Campus_Biotech_Geneva",
  "InstitutionalDepartmentName": "Department",
  "MRAcquisitionType": "2D",
  "MagneticFieldStrength": 3,
  "Manufacturer": "Siemens",
  "ManufacturersModelName": "Prisma",
  "Modality": "MR",
  "MultibandAccelerationFactor": 4,
  "PartialFourier": 0.875,
  "PatientPosition": "HFS",
  "PercentPhaseFOV": 100,
  "PhaseEncodingDirection": "j-",
  "PhaseEncodingSteps": 95,
  "PhaseResolution": 1,
  "PixelBandwidth": 2205,
  "ProcedureStepDescription": "J.DRM_Michael",
  "ProtocolName": "Run6_bold_s4_TR1.28",
  "PulseSequenceDetails": "%SiemensSeq%_ep2d_bold",
  "ReceiveCoilActiveElements": "HC1-7;NC1,2",
  "ReceiveCoilName": "HeadNeck_64",
  "ReconMatrixPE": 108,
  "RepetitionTime": 1.28,
  "SAR": 0.0704681,
  "ScanOptions": "PFP_FS",
  "ScanningSequence": "EP",
  "SequenceName": "_epfid2d1_108",
  "SequenceVariant": "SK",
  "SeriesDescription": "Run6_bold_s4_TR1.28",
  "SeriesNumber": 13,
  "ShimSetting": [-1252, -11685, 6458, 548, 162, -221, -53, 58],
  "SliceThickness": 2,
  "SliceTiming": [0.945, 0, 0.63, 0.0775, 0.7075, 0.1575, 0.7875, 0.235, 0.865, 0.3925, 1.0225, 0.4725, 1.1025, 0.55, 1.18, 0.315, 0.945, 0, 0.63, 0.0775, 0.7075, 0.1575, 0.7875, 0.235, 0.865, 0.3925, 1.0225, 0.4725, 1.1025, 0.55, 1.18, 0.315, 0.945, 0, 0.63, 0.0775, 0.7075, 0.1575, 0.7875, 0.235, 0.865, 0.3925, 1.0225, 0.4725, 1.1025, 0.55, 1.18, 0.315, 0.945, 0, 0.63, 0.0775, 0.7075, 0.1575, 0.7875, 0.235, 0.865, 0.3925, 1.0225, 0.4725, 1.1025, 0.55, 1.18, 0.315],
  "SoftwareVersions": "syngo_MR_E11",
  "SpacingBetweenSlices": 2,
  "StationName": "AWP66054",
  "TaskName": "main",
  "TotalReadoutTime": 0.0620609,
  "TxRefAmp": 248.348,
  "dcmmeta_affine": [
    [-1.968258261680603, -0.23470062017440796, 0.18504051864147186, 112.74041748046875],
    [-0.2874397337436676, 1.821016550064087, -0.7547104954719543, -57.46609115600586],
    [0.07991540431976318, 0.7693265676498413, 1.8428707122802734, -95.6504135131836],
    [0.0, 0.0, 0.0, 1.0]
],
  "dcmmeta_reorient_transform": [
    [0.0, -1.0, 0.0, 107.0],
    [1.0, 0.0, 0.0, 0.0],
    [0.0, 0.0, 1.0, 0.0],
    [0.0, 0.0, 0.0, 1.0]
],
  "dcmmeta_shape": [108, 108, 64, 373],
  "dcmmeta_slice_dim": 2,
  "dcmmeta_version": 0.6,
  "global": {
    "const": {
      "AccessionNumber": "",
      "AcquisitionMatrix": [108, 0, 0, 108],
      "AngioFlag": "N",
      "BitsAllocated": 16,
      "BitsStored": 12,
      "BodyPartExamined": "BRAIN",
      "Columns": 864,
      "EchoNumbers": 1,
      "EchoTime": 31.0,
      "EchoTrainLength": 95,
      "FlipAngle": 64.0,
      "HighBit": 11,
      "ImageOrientationPatient": [0.98870648136306, 0.14438832735409, 0.04014355034836, -0.1178961251664, 0.91474315787882, -0.3864524017064],
      "ImagePositionPatient": [-742.91225613018, -934.37913067755, 247.26494087746],
      "ImageType": [
        "ORIGINAL",
        "PRIMARY",
        "M",
        "ND",
        "MOSAIC"
],
      "ImagedNucleus": "1H",
      "ImagingFrequency": 123.257424,
      "InPlanePhaseEncodingDirection": "COL",
      "MRAcquisitionType": "2D",
      "MagneticFieldStrength": 3.0,
      "Manufacturer": "SIEMENS",
      "ManufacturerModelName": "Prisma",
      "Modality": "MR",
      "NumberOfAverages": 1.0,
      "NumberOfPhaseEncodingSteps": 95,
      "PercentPhaseFieldOfView": 100.0,
      "PercentSampling": 100.0,
      "PerformedProcedureStepStartTime": "110109.021000",
      "PhotometricInterpretation": "MONOCHROME2",
      "PixelBandwidth": 2205.0,
      "PixelRepresentation": 0,
      "PixelSpacing": [1.990740776062, 1.990740776062],
      "PositionReferenceIndicator": "",
      "ProtocolName": "Run6_bold_s4_TR1.28",
      "RepetitionTime": 1280.0,
      "Rows": 864,
      "SAR": 0.07046805207619,
      "SamplesPerPixel": 1,
      "ScanOptions": [
        "PFP",
        "FS"
],
      "ScanningSequence": "EP",
      "SequenceName": "*epfid2d1_108",
      "SequenceVariant": "SK",
      "SeriesDescription": "Run6_bold_s4_TR1.28",
      "SeriesNumber": 13,
      "SeriesTime": "120409.857000",
      "SliceLocation": -56.019768518516,
      "SliceThickness": 2.0,
      "SmallestImagePixelValue": 0,
      "SoftwareVersions": "syngo MR E11",
      "SpacingBetweenSlices": 2.0000000530406,
      "SpecificCharacterSet": "ISO_IR 100",
      "StudyID": "1",
      "StudyTime": "110108.840000",
      "TransmitCoilName": "Body",
      "VariableFlipAngleFlag": "N",
      "WindowCenterWidthExplanation": "Algo1",
      "dBdt": 0.0},
    "slices": {}
  },
  "time": {
    "samples": {
      "AcquisitionNumber": [1, 2, 3, 4, 5, 6, 7, 8, 9, 10, 11, 12, 13, 14, 15, 16, 17, 18, 19, 20, 21, 22, 23, 24, 25, 26, 27, 28, 29, 30, 31, 32, 33, 34, 35, 36, 37, 38, 39, 40, 41, 42, 43, 44, 45, 46, 47, 48, 49, 50, 51, 52, 53, 54, 55, 56, 57, 58, 59, 60, 61, 62, 63, 64, 65, 66, 67, 68, 69, 70, 71, 72, 73, 74, 75, 76, 77, 78, 79, 80, 81, 82, 83, 84, 85, 86, 87, 88, 89, 90, 91, 92, 93, 94, 95, 96, 97, 98, 99, 100, 101, 102, 103, 104, 105, 106, 107, 108, 109, 110, 111, 112, 113, 114, 115, 116, 117, 118, 119, 120, 121, 122, 123, 124, 125, 126, 127, 128, 129, 130, 131, 132, 133, 134, 135, 136, 137, 138, 139, 140, 141, 142, 143, 144, 145, 146, 147, 148, 149, 150, 151, 152, 153, 154, 155, 156, 157, 158, 159, 160, 161, 162, 163, 164, 165, 166, 167, 168, 169, 170, 171, 172, 173, 174, 175, 176, 177, 178, 179, 180, 181, 182, 183, 184, 185, 186, 187, 188, 189, 190, 191, 192, 193, 194, 195, 196, 197, 198, 199, 200, 201, 202, 203, 204, 205, 206, 207, 208, 209, 210, 211, 212, 213, 214, 215, 216, 217, 218, 219, 220, 221, 222, 223, 224, 225, 226, 227, 228, 229, 230, 231, 232, 233, 234, 235, 236, 237, 238, 239, 240, 241, 242, 243, 244, 245, 246, 247, 248, 249, 250, 251, 252, 253, 254, 255, 256, 257, 258, 259, 260, 261, 262, 263, 264, 265, 266, 267, 268, 269, 270, 271, 272, 273, 274, 275, 276, 277, 278, 279, 280, 281, 282, 283, 284, 285, 286, 287, 288, 289, 290, 291, 292, 293, 294, 295, 296, 297, 298, 299, 300, 301, 302, 303, 304, 305, 306, 307, 308, 309, 310, 311, 312, 313, 314, 315, 316, 317, 318, 319, 320, 321, 322, 323, 324, 325, 326, 327, 328, 329, 330, 331, 332, 333, 334, 335, 336, 337, 338, 339, 340, 341, 342, 343, 344, 345, 346, 347, 348, 349, 350, 351, 352, 353, 354, 355, 356, 357, 358, 359, 360, 361, 362, 363, 364, 365, 366, 367, 368, 369, 370, 371, 372, 373],
      "AcquisitionTime": ["120330.680000", "120331.960000", "120333.240000", "120334.520000", "120335.800000", "120337.080000", "120338.360000", "120339.640000", "120340.920000", "120342.200000", "120343.480000", "120344.760000", "120346.040000", "120347.320000", "120348.600000", "120349.880000", "120351.160000", "120352.440000", "120353.720000", "120355.000000", "120356.280000", "120357.560000", "120358.840000", "120400.120000", "120401.400000", "120402.680000", "120403.960000", "120405.240000", "120406.520000", "120407.800000", "120409.080000", "120410.360000", "120411.640000", "120412.920000", "120414.200000", "120415.480000", "120416.760000", "120418.040000", "120419.320000", "120420.600000", "120421.880000", "120423.160000", "120424.440000", "120425.720000", "120427.000000", "120428.280000", "120429.560000", "120430.840000", "120432.120000", "120433.400000", "120434.680000", "120435.960000", "120437.240000", "120438.520000", "120439.800000", "120441.080000", "120442.360000", "120443.640000", "120444.920000", "120446.200000", "120447.480000", "120448.760000", "120450.040000", "120451.320000", "120452.600000", "120453.880000", "120455.160000", "120456.440000", "120457.720000", "120459.000000", "120500.280000", "120501.560000", "120502.840000", "120504.120000", "120505.400000", "120506.680000", "120507.960000", "120509.240000", "120510.520000", "120511.800000", "120513.080000", "120514.360000", "120515.640000", "120516.920000", "120518.200000", "120519.480000", "120520.760000", "120522.040000", "120523.320000", "120524.600000", "120525.880000", "120527.160000", "120528.440000", "120529.720000", "120531.000000", "120532.280000", "120533.560000", "120534.840000", "120536.120000", "120537.400000", "120538.680000", "120539.960000", "120541.240000", "120542.520000", "120543.800000", "120545.080000", "120546.360000", "120547.640000", "120548.920000", "120550.200000", "120551.480000", "120552.760000", "120554.040000", "120555.320000", "120556.600000", "120557.880000", "120559.160000", "120600.440000", "120601.720000", "120603.000000", "120604.280000", "120605.560000", "120606.840000", "120608.120000", "120609.400000", "120610.680000", "120611.960000", "120613.240000", "120614.520000", "120615.800000", "120617.080000", "120618.360000", "120619.640000", "120620.920000", "120622.200000", "120623.480000", "120624.760000", "120626.040000", "120627.320000", "120628.600000", "120629.880000", "120631.160000", "120632.440000", "120633.720000", "120635.000000", "120636.280000", "120637.560000", "120638.840000", "120640.120000", "120641.400000", "120642.680000", "120643.960000", "120645.240000", "120646.520000", "120647.800000", "120649.080000", "120650.360000", "120651.640000", "120652.920000", "120654.200000", "120655.480000", "120656.760000", "120658.040000", "120659.320000", "120700.600000", "120701.880000", "120703.160000", "120704.440000", "120705.720000", "120707.000000", "120708.280000", "120709.560000", "120710.840000", "120712.120000", "120713.400000", "120714.680000", "120715.960000", "120717.240000", "120718.520000", "120719.800000", "120721.080000", "120722.360000", "120723.640000", "120724.920000", "120726.200000", "120727.480000", "120728.760000", "120730.040000", "120731.320000", "120732.600000", "120733.880000", "120735.160000", "120736.440000", "120737.720000", "120739.000000", "120740.280000", "120741.560000", "120742.840000", "120744.120000", "120745.400000", "120746.680000", "120747.960000", "120749.240000", "120750.520000", "120751.800000", "120753.080000", "120754.360000", "120755.640000", "120756.920000", "120758.200000", "120759.480000", "120800.760000", "120802.040000", "120803.320000", "120804.600000", "120805.880000", "120807.160000", "120808.440000", "120809.720000", "120811.000000", "120812.280000", "120813.560000", "120814.840000", "120816.120000", "120817.400000", "120818.680000", "120819.960000", "120821.240000", "120822.520000", "120823.800000", "120825.080000", "120826.360000", "120827.640000", "120828.920000", "120830.200000", "120831.480000", "120832.760000", "120834.040000", "120835.320000", "120836.600000", "120837.880000", "120839.160000", "120840.440000", "120841.720000", "120843.000000", "120844.280000", "120845.560000", "120846.840000", "120848.120000", "120849.400000", "120850.680000", "120851.960000", "120853.240000", "120854.520000", "120855.800000", "120857.080000", "120858.360000", "120859.640000", "120900.920000", "120902.200000", "120903.480000", "120904.760000", "120906.040000", "120907.320000", "120908.600000", "120909.880000", "120911.160000", "120912.440000", "120913.720000", "120915.000000", "120916.280000", "120917.560000", "120918.840000", "120920.120000", "120921.400000", "120922.680000", "120923.960000", "120925.240000", "120926.520000", "120927.800000", "120929.080000", "120930.360000", "120931.640000", "120932.920000", "120934.200000", "120935.480000", "120936.760000", "120938.040000", "120939.320000", "120940.600000", "120941.880000", "120943.160000", "120944.440000", "120945.720000", "120947.000000", "120948.280000", "120949.560000", "120950.840000", "120952.120000", "120953.400000", "120954.680000", "120955.960000", "120957.240000", "120958.520000", "120959.800000", "121001.080000", "121002.360000", "121003.640000", "121004.920000", "121006.200000", "121007.480000", "121008.760000", "121010.040000", "121011.320000", "121012.600000", "121013.880000", "121015.160000", "121016.440000", "121017.720000", "121019.000000", "121020.280000", "121021.560000", "121022.840000", "121024.120000", "121025.400000", "121026.680000", "121027.960000", "121029.240000", "121030.520000", "121031.800000", "121033.080000", "121034.360000", "121035.640000", "121036.920000", "121038.200000", "121039.480000", "121040.760000", "121042.040000", "121043.320000", "121044.600000", "121045.880000", "121047.160000", "121048.440000", "121049.720000", "121051.000000", "121052.280000", "121053.560000", "121054.840000", "121056.120000", "121057.400000", "121058.680000", "121059.960000", "121101.240000", "121102.520000", "121103.800000", "121105.080000", "121106.360000", "121107.640000", "121108.920000", "121110.200000", "121111.480000", "121112.760000", "121114.040000", "121115.320000", "121116.600000", "121117.880000", "121119.160000", "121120.440000", "121121.720000", "121123.000000", "121124.280000", "121125.560000", "121126.840000"],
      "ContentTime": ["120409.860000", "120409.864000", "120409.873000", "120409.876000", "120409.878000", "120409.881000", "120409.884000", "120409.887000", "120409.890000", "120409.893000", "120409.896000", "120409.899000", "120409.914000", "120409.917000", "120409.920000", "120409.923000", "120409.926000", "120409.929000", "120409.932000", "120409.935000", "120409.938000", "120409.941000", "120409.944000", "120409.946000", "120409.949000", "120409.952000", "120409.955000", "120409.959000", "120409.964000", "120409.967000", "120449.855000", "120449.858000", "120449.861000", "120449.864000", "120449.867000", "120449.870000", "120449.873000", "120449.876000", "120449.883000", "120449.886000", "120449.889000", "120449.892000", "120449.895000", "120449.898000", "120449.900000", "120449.903000", "120449.907000", "120449.910000", "120449.913000", "120449.916000", "120449.919000", "120449.922000", "120449.925000", "120449.928000", "120449.931000", "120449.934000", "120449.937000", "120449.940000", "120449.943000", "120449.946000", "120449.949000", "120449.952000", "120529.856000", "120529.859000", "120529.862000", "120529.865000", "120529.868000", "120529.871000", "120529.874000", "120529.877000", "120529.880000", "120529.883000", "120529.886000", "120529.888000", "120529.891000", "120529.894000", "120529.897000", "120529.900000", "120529.903000", "120529.911000", "120529.914000", "120529.917000", "120529.920000", "120529.923000", "120529.926000", "120529.929000", "120529.932000", "120529.935000", "120529.938000", "120529.941000", "120529.944000", "120529.947000", "120529.949000", "120609.856000", "120609.859000", "120609.862000", "120609.865000", "120609.868000", "120609.871000", "120609.874000", "120609.877000", "120609.880000", "120609.883000", "120609.886000", "120609.888000", "120609.891000", "120609.894000", "120609.897000", "120609.900000", "120609.903000", "120609.906000", "120609.909000", "120609.912000", "120609.915000", "120609.918000", "120609.920000", "120609.923000", "120609.926000", "120609.929000", "120609.932000", "120609.935000", "120609.938000", "120609.941000", "120609.944000", "120649.855000", "120649.858000", "120649.861000", "120649.864000", "120649.867000", "120649.870000", "120649.873000", "120649.876000", "120649.879000", "120649.882000", "120649.884000", "120649.887000", "120649.890000", "120649.893000", "120649.896000", "120649.899000", "120649.902000", "120649.905000", "120649.908000", "120649.911000", "120649.914000", "120649.917000", "120649.919000", "120649.922000", "120649.925000", "120649.928000", "120649.931000", "120649.934000", "120649.937000", "120649.940000", "120649.943000", "120729.856000", "120729.859000", "120729.862000", "120729.865000", "120729.868000", "120729.871000", "120729.874000", "120729.877000", "120729.880000", "120729.883000", "120729.885000", "120729.888000", "120729.891000", "120729.894000", "120729.897000", "120729.900000", "120729.903000", "120729.906000", "120729.909000", "120729.912000", "120729.915000", "120729.918000", "120729.920000", "120729.923000", "120729.926000", "120729.929000", "120729.932000", "120729.935000", "120729.938000", "120729.941000", "120729.944000", "120729.947000", "120809.856000", "120809.878000", "120809.882000", "120809.884000", "120809.887000", "120809.890000", "120809.893000", "120809.896000", "120809.899000", "120809.902000", "120809.905000", "120809.908000", "120809.911000", "120809.914000", "120809.917000", "120809.920000", "120809.923000", "120809.938000", "120809.948000", "120809.951000", "120809.954000", "120809.957000", "120809.960000", "120809.963000", "120809.966000", "120809.968000", "120809.971000", "120809.974000", "120809.977000", "120809.980000", "120809.983000", "120849.856000", "120849.859000", "120849.862000", "120849.865000", "120849.868000", "120849.871000", "120849.874000", "120849.877000", "120849.880000", "120849.883000", "120849.886000", "120849.889000", "120849.892000", "120849.895000", "120849.898000", "120849.900000", "120849.903000", "120849.906000", "120849.909000", "120849.912000", "120849.915000", "120849.918000", "120849.921000", "120849.924000", "120849.927000", "120849.930000", "120849.933000", "120849.935000", "120849.938000", "120849.941000", "120849.944000", "120929.855000", "120929.858000", "120929.861000", "120929.864000", "120929.867000", "120929.870000", "120929.873000", "120929.876000", "120929.879000", "120929.882000", "120929.885000", "120929.888000", "120929.891000", "120929.893000", "120929.896000", "120929.899000", "120929.902000", "120929.905000", "120929.908000", "120929.911000", "120929.914000", "120929.917000", "120929.920000", "120929.923000", "120929.926000", "120929.929000", "120929.931000", "120929.934000", "120929.937000", "120929.940000", "120929.943000", "121009.856000", "121009.871000", "121009.874000", "121009.877000", "121009.880000", "121009.883000", "121009.886000", "121009.888000", "121009.891000", "121009.894000", "121009.897000", "121009.900000", "121009.903000", "121009.906000", "121009.909000", "121009.912000", "121009.915000", "121009.918000", "121009.921000", "121009.924000", "121009.927000", "121009.930000", "121009.933000", "121009.936000", "121009.938000", "121009.942000", "121009.944000", "121009.947000", "121009.950000", "121009.953000", "121009.956000", "121009.959000", "121049.856000", "121049.859000", "121049.862000", "121049.865000", "121049.868000", "121049.871000", "121049.874000", "121049.877000", "121049.880000", "121049.883000", "121049.886000", "121049.889000", "121049.892000", "121049.894000", "121049.897000", "121049.900000", "121049.903000", "121049.906000", "121049.909000", "121049.913000", "121049.916000", "121049.919000", "121049.922000", "121049.925000", "121049.928000", "121049.930000", "121049.933000", "121049.936000", "121049.939000", "121049.942000", "121049.945000", "121127.748000", "121127.751000", "121127.754000", "121127.757000", "121127.761000", "121127.763000", "121127.766000", "121127.769000", "121127.773000", "121127.776000", "121127.778000", "121127.781000", "121127.784000", "121127.787000", "121127.790000", "121127.793000", "121127.796000", "121127.799000", "121127.802000", "121127.805000", "121127.808000", "121127.811000", "121127.814000", "121127.816000", "121127.820000", "121127.822000", "121127.825000", "121127.828000", "121127.831000", "121127.834000"],
      "InstanceCreationTime": ["120409.860000", "120409.864000", "120409.873000", "120409.876000", "120409.878000", "120409.881000", "120409.884000", "120409.887000", "120409.890000", "120409.893000", "120409.896000", "120409.899000", "120409.914000", "120409.917000", "120409.920000", "120409.923000", "120409.926000", "120409.929000", "120409.932000", "120409.935000", "120409.938000", "120409.941000", "120409.944000", "120409.946000", "120409.949000", "120409.952000", "120409.955000", "120409.959000", "120409.964000", "120409.967000", "120449.855000", "120449.858000", "120449.861000", "120449.864000", "120449.867000", "120449.870000", "120449.873000", "120449.876000", "120449.883000", "120449.886000", "120449.889000", "120449.892000", "120449.895000", "120449.898000", "120449.900000", "120449.903000", "120449.907000", "120449.910000", "120449.913000", "120449.916000", "120449.919000", "120449.922000", "120449.925000", "120449.928000", "120449.931000", "120449.934000", "120449.937000", "120449.940000", "120449.943000", "120449.946000", "120449.949000", "120449.952000", "120529.856000", "120529.859000", "120529.862000", "120529.865000", "120529.868000", "120529.871000", "120529.874000", "120529.877000", "120529.880000", "120529.883000", "120529.886000", "120529.888000", "120529.891000", "120529.894000", "120529.897000", "120529.900000", "120529.903000", "120529.911000", "120529.914000", "120529.917000", "120529.920000", "120529.923000", "120529.926000", "120529.929000", "120529.932000", "120529.935000", "120529.938000", "120529.941000", "120529.944000", "120529.947000", "120529.949000", "120609.856000", "120609.859000", "120609.862000", "120609.865000", "120609.868000", "120609.871000", "120609.874000", "120609.877000", "120609.880000", "120609.883000", "120609.886000", "120609.888000", "120609.891000", "120609.894000", "120609.897000", "120609.900000", "120609.903000", "120609.906000", "120609.909000", "120609.912000", "120609.915000", "120609.918000", "120609.920000", "120609.923000", "120609.926000", "120609.929000", "120609.932000", "120609.935000", "120609.938000", "120609.941000", "120609.944000", "120649.855000", "120649.858000", "120649.861000", "120649.864000", "120649.867000", "120649.870000", "120649.873000", "120649.876000", "120649.879000", "120649.882000", "120649.884000", "120649.887000", "120649.890000", "120649.893000", "120649.896000", "120649.899000", "120649.902000", "120649.905000", "120649.908000", "120649.911000", "120649.914000", "120649.917000", "120649.919000", "120649.922000", "120649.925000", "120649.928000", "120649.931000", "120649.934000", "120649.937000", "120649.940000", "120649.943000", "120729.856000", "120729.859000", "120729.862000", "120729.865000", "120729.868000", "120729.871000", "120729.874000", "120729.877000", "120729.880000", "120729.883000", "120729.885000", "120729.888000", "120729.891000", "120729.894000", "120729.897000", "120729.900000", "120729.903000", "120729.906000", "120729.909000", "120729.912000", "120729.915000", "120729.918000", "120729.920000", "120729.923000", "120729.926000", "120729.929000", "120729.932000", "120729.935000", "120729.938000", "120729.941000", "120729.944000", "120729.947000", "120809.856000", "120809.878000", "120809.882000", "120809.884000", "120809.887000", "120809.890000", "120809.893000", "120809.896000", "120809.899000", "120809.902000", "120809.905000", "120809.908000", "120809.911000", "120809.914000", "120809.917000", "120809.920000", "120809.923000", "120809.938000", "120809.948000", "120809.951000", "120809.954000", "120809.957000", "120809.960000", "120809.963000", "120809.966000", "120809.968000", "120809.971000", "120809.974000", "120809.977000", "120809.980000", "120809.983000", "120849.856000", "120849.859000", "120849.862000", "120849.865000", "120849.868000", "120849.871000", "120849.874000", "120849.877000", "120849.880000", "120849.883000", "120849.886000", "120849.889000", "120849.892000", "120849.895000", "120849.898000", "120849.900000", "120849.903000", "120849.906000", "120849.909000", "120849.912000", "120849.915000", "120849.918000", "120849.921000", "120849.924000", "120849.927000", "120849.930000", "120849.933000", "120849.935000", "120849.938000", "120849.941000", "120849.944000", "120929.855000", "120929.858000", "120929.861000", "120929.864000", "120929.867000", "120929.870000", "120929.873000", "120929.876000", "120929.879000", "120929.882000", "120929.885000", "120929.888000", "120929.891000", "120929.893000", "120929.896000", "120929.899000", "120929.902000", "120929.905000", "120929.908000", "120929.911000", "120929.914000", "120929.917000", "120929.920000", "120929.923000", "120929.926000", "120929.929000", "120929.931000", "120929.934000", "120929.937000", "120929.940000", "120929.943000", "121009.856000", "121009.871000", "121009.874000", "121009.877000", "121009.880000", "121009.883000", "121009.886000", "121009.888000", "121009.891000", "121009.894000", "121009.897000", "121009.900000", "121009.903000", "121009.906000", "121009.909000", "121009.912000", "121009.915000", "121009.918000", "121009.921000", "121009.924000", "121009.927000", "121009.930000", "121009.933000", "121009.936000", "121009.938000", "121009.942000", "121009.944000", "121009.947000", "121009.950000", "121009.953000", "121009.956000", "121009.959000", "121049.856000", "121049.859000", "121049.862000", "121049.865000", "121049.868000", "121049.871000", "121049.874000", "121049.877000", "121049.880000", "121049.883000", "121049.886000", "121049.889000", "121049.892000", "121049.894000", "121049.897000", "121049.900000", "121049.903000", "121049.906000", "121049.909000", "121049.913000", "121049.916000", "121049.919000", "121049.922000", "121049.925000", "121049.928000", "121049.930000", "121049.933000", "121049.936000", "121049.939000", "121049.942000", "121049.945000", "121127.748000", "121127.751000", "121127.754000", "121127.757000", "121127.761000", "121127.763000", "121127.766000", "121127.769000", "121127.773000", "121127.776000", "121127.778000", "121127.781000", "121127.784000", "121127.787000", "121127.790000", "121127.793000", "121127.796000", "121127.799000", "121127.802000", "121127.805000", "121127.808000", "121127.811000", "121127.814000", "121127.816000", "121127.820000", "121127.822000", "121127.825000", "121127.828000", "121127.831000", "121127.834000"],
      "InstanceNumber": [1, 2, 3, 4, 5, 6, 7, 8, 9, 10, 11, 12, 13, 14, 15, 16, 17, 18, 19, 20, 21, 22, 23, 24, 25, 26, 27, 28, 29, 30, 31, 32, 33, 34, 35, 36, 37, 38, 39, 40, 41, 42, 43, 44, 45, 46, 47, 48, 49, 50, 51, 52, 53, 54, 55, 56, 57, 58, 59, 60, 61, 62, 63, 64, 65, 66, 67, 68, 69, 70, 71, 72, 73, 74, 75, 76, 77, 78, 79, 80, 81, 82, 83, 84, 85, 86, 87, 88, 89, 90, 91, 92, 93, 94, 95, 96, 97, 98, 99, 100, 101, 102, 103, 104, 105, 106, 107, 108, 109, 110, 111, 112, 113, 114, 115, 116, 117, 118, 119, 120, 121, 122, 123, 124, 125, 126, 127, 128, 129, 130, 131, 132, 133, 134, 135, 136, 137, 138, 139, 140, 141, 142, 143, 144, 145, 146, 147, 148, 149, 150, 151, 152, 153, 154, 155, 156, 157, 158, 159, 160, 161, 162, 163, 164, 165, 166, 167, 168, 169, 170, 171, 172, 173, 174, 175, 176, 177, 178, 179, 180, 181, 182, 183, 184, 185, 186, 187, 188, 189, 190, 191, 192, 193, 194, 195, 196, 197, 198, 199, 200, 201, 202, 203, 204, 205, 206, 207, 208, 209, 210, 211, 212, 213, 214, 215, 216, 217, 218, 219, 220, 221, 222, 223, 224, 225, 226, 227, 228, 229, 230, 231, 232, 233, 234, 235, 236, 237, 238, 239, 240, 241, 242, 243, 244, 245, 246, 247, 248, 249, 250, 251, 252, 253, 254, 255, 256, 257, 258, 259, 260, 261, 262, 263, 264, 265, 266, 267, 268, 269, 270, 271, 272, 273, 274, 275, 276, 277, 278, 279, 280, 281, 282, 283, 284, 285, 286, 287, 288, 289, 290, 291, 292, 293, 294, 295, 296, 297, 298, 299, 300, 301, 302, 303, 304, 305, 306, 307, 308, 309, 310, 311, 312, 313, 314, 315, 316, 317, 318, 319, 320, 321, 322, 323, 324, 325, 326, 327, 328, 329, 330, 331, 332, 333, 334, 335, 336, 337, 338, 339, 340, 341, 342, 343, 344, 345, 346, 347, 348, 349, 350, 351, 352, 353, 354, 355, 356, 357, 358, 359, 360, 361, 362, 363, 364, 365, 366, 367, 368, 369, 370, 371, 372, 373],
