{
  "AcquisitionMatrixPE": 108,
  "AcquisitionNumber": 1,
  "AcquisitionTime": "16:25:38.520000",
  "BandwidthPerPixelPhaseEncode": 15.964,
  "BaseResolution": 108,
  "BodyPartExamined": "BRAIN",
  "ConsistencyInfo": "N4_VE11C_LATEST_20160120",
  "ConversionSoftware": "dcm2niix",
  "ConversionSoftwareVersion": "v1.0.20180622 GCC6.3.0",
  "DerivedVendorReportedEchoSpacing": 0.000580009,
  "DeviceSerialNumber": "66054",
  "DwellTime": 2.1e-06,
  "EchoTime": 0.031,
  "EchoTrainLength": 95,
  "EffectiveEchoSpacing": 0.000580009,
  "FlipAngle": 64,
  "ImageOrientationPatientDICOM": [0.999361, 0.0267022, 0.0237655, -0.0174439, 0.944591, -0.327785],
  "ImageType": [
    "ORIGINAL",
    "PRIMARY",
    "M",
    "ND",
    "MOSAIC"
],
  "InPlanePhaseEncodingDirectionDICOM": "COL",
  "InstitutionAddress": "Chemin_des_Mines_9_Geneve_District_CH_1211",
  "InstitutionName": "Fondation_Campus_Biotech_Geneva",
  "InstitutionalDepartmentName": "Department",
  "MRAcquisitionType": "2D",
  "MagneticFieldStrength": 3,
  "Manufacturer": "Siemens",
  "ManufacturersModelName": "Prisma",
  "Modality": "MR",
  "MultibandAccelerationFactor": 4,
  "PartialFourier": 0.875,
  "PatientPosition": "HFS",
  "PercentPhaseFOV": 100,
  "PhaseEncodingDirection": "j-",
  "PhaseEncodingSteps": 95,
  "PhaseResolution": 1,
  "PixelBandwidth": 2205,
  "ProcedureStepDescription": "J.DRM_Michael",
  "ProtocolName": "Run6_bold_s4_TR1.28",
  "PulseSequenceDetails": "%SiemensSeq%_ep2d_bold",
  "ReceiveCoilActiveElements": "HC1-7;NC1,2",
  "ReceiveCoilName": "HeadNeck_64",
  "ReconMatrixPE": 108,
  "RepetitionTime": 1.28,
  "SAR": 0.0720934,
  "ScanOptions": "PFP_FS",
  "ScanningSequence": "EP",
  "SequenceName": "_epfid2d1_108",
  "SequenceVariant": "SK",
  "SeriesDescription": "Run6_bold_s4_TR1.28",
  "SeriesNumber": 14,
  "ShimSetting": [-1248, -11673, 6469, 587, 155, -191, -60, 5],
  "SliceThickness": 2,
  "SliceTiming": [0.945, 0, 0.63, 0.08, 0.71, 0.1575, 0.7875, 0.2375, 0.8675, 0.395, 1.025, 0.4725, 1.1025, 0.5525, 1.1825, 0.315, 0.945, 0, 0.63, 0.08, 0.71, 0.1575, 0.7875, 0.2375, 0.8675, 0.395, 1.025, 0.4725, 1.1025, 0.5525, 1.1825, 0.315, 0.945, 0, 0.63, 0.08, 0.71, 0.1575, 0.7875, 0.2375, 0.8675, 0.395, 1.025, 0.4725, 1.1025, 0.5525, 1.1825, 0.315, 0.945, 0, 0.63, 0.08, 0.71, 0.1575, 0.7875, 0.2375, 0.8675, 0.395, 1.025, 0.4725, 1.1025, 0.5525, 1.1825, 0.315],
  "SoftwareVersions": "syngo_MR_E11",
  "SpacingBetweenSlices": 2,
  "StationName": "AWP66054",
  "TaskName": "main",
  "TotalReadoutTime": 0.0620609,
  "TxRefAmp": 249.558,
  "dcmmeta_affine": [
    [-1.9894684553146362, -0.034726254642009735, 0.06240252032876015, 110.330810546875],
    [-0.05315724015235901, 1.8804364204406738, -0.6543217897415161, -60.17472457885742],
    [0.04731091111898422, 0.6525348424911499, 1.8889068365097046, -84.4303207397461],
    [0.0, 0.0, 0.0, 1.0]
],
  "dcmmeta_reorient_transform": [
    [0.0, -1.0, 0.0, 107.0],
    [1.0, 0.0, 0.0, 0.0],
    [0.0, 0.0, 1.0, 0.0],
    [0.0, 0.0, 0.0, 1.0]
],
  "dcmmeta_shape": [108, 108, 64, 375],
  "dcmmeta_slice_dim": 2,
  "dcmmeta_version": 0.6,
  "global": {
    "const": {
      "AccessionNumber": "",
      "AcquisitionMatrix": [108, 0, 0, 108],
      "AngioFlag": "N",
      "BitsAllocated": 16,
      "BitsStored": 12,
      "BodyPartExamined": "BRAIN",
      "Columns": 864,
      "EchoNumbers": 1,
      "EchoTime": 31.0,
      "EchoTrainLength": 95,
      "FlipAngle": 64.0,
      "HighBit": 11,
      "ImageOrientationPatient": [0.99936089190462, 0.02670224057923, 0.02376548084182, -0.0174438862009, 0.94459131012589, -0.3277849411868],
      "ImagePositionPatient": [-845.5076601689, -871.93038453435, 214.16555324932],
      "ImageType": [
        "ORIGINAL",
        "PRIMARY",
        "M",
        "ND",
        "MOSAIC"
],
      "ImagedNucleus": "1H",
      "ImagingFrequency": 123.25741,
      "InPlanePhaseEncodingDirection": "COL",
      "MRAcquisitionType": "2D",
      "MagneticFieldStrength": 3.0,
      "Manufacturer": "SIEMENS",
      "ManufacturerModelName": "Prisma",
      "Modality": "MR",
      "NumberOfAverages": 1.0,
      "NumberOfPhaseEncodingSteps": 95,
      "PercentPhaseFieldOfView": 100.0,
      "PercentSampling": 100.0,
      "PerformedProcedureStepStartTime": "151514.126000",
      "PhotometricInterpretation": "MONOCHROME2",
      "PixelBandwidth": 2205.0,
      "PixelRepresentation": 0,
      "PixelSpacing": [1.990740776062, 1.990740776062],
      "PositionReferenceIndicator": "",
      "ProtocolName": "Run6_bold_s4_TR1.28",
      "RepetitionTime": 1280.0,
      "Rows": 864,
      "SAR": 0.07209344242669,
      "SamplesPerPixel": 1,
      "ScanOptions": [
        "PFP",
        "FS"
],
      "ScanningSequence": "EP",
      "SequenceName": "*epfid2d1_108",
      "SequenceVariant": "SK",
      "SeriesDescription": "Run6_bold_s4_TR1.28",
      "SeriesNumber": 14,
      "SeriesTime": "162619.137000",
      "SliceLocation": -56.611230074761,
      "SliceThickness": 2.0,
      "SmallestImagePixelValue": 0,
      "SoftwareVersions": "syngo MR E11",
      "SpacingBetweenSlices": 2.0000000558295,
      "SpecificCharacterSet": "ISO_IR 100",
      "StudyID": "1",
      "StudyTime": "151514.060000",
      "TransmitCoilName": "Body",
      "VariableFlipAngleFlag": "N",
      "WindowCenterWidthExplanation": "Algo1",
      "dBdt": 0.0},
    "slices": {}
  },
  "time": {
    "samples": {
      "AcquisitionNumber": [1, 2, 3, 4, 5, 6, 7, 8, 9, 10, 11, 12, 13, 14, 15, 16, 17, 18, 19, 20, 21, 22, 23, 24, 25, 26, 27, 28, 29, 30, 31, 32, 33, 34, 35, 36, 37, 38, 39, 40, 41, 42, 43, 44, 45, 46, 47, 48, 49, 50, 51, 52, 53, 54, 55, 56, 57, 58, 59, 60, 61, 62, 63, 64, 65, 66, 67, 68, 69, 70, 71, 72, 73, 74, 75, 76, 77, 78, 79, 80, 81, 82, 83, 84, 85, 86, 87, 88, 89, 90, 91, 92, 93, 94, 95, 96, 97, 98, 99, 100, 101, 102, 103, 104, 105, 106, 107, 108, 109, 110, 111, 112, 113, 114, 115, 116, 117, 118, 119, 120, 121, 122, 123, 124, 125, 126, 127, 128, 129, 130, 131, 132, 133, 134, 135, 136, 137, 138, 139, 140, 141, 142, 143, 144, 145, 146, 147, 148, 149, 150, 151, 152, 153, 154, 155, 156, 157, 158, 159, 160, 161, 162, 163, 164, 165, 166, 167, 168, 169, 170, 171, 172, 173, 174, 175, 176, 177, 178, 179, 180, 181, 182, 183, 184, 185, 186, 187, 188, 189, 190, 191, 192, 193, 194, 195, 196, 197, 198, 199, 200, 201, 202, 203, 204, 205, 206, 207, 208, 209, 210, 211, 212, 213, 214, 215, 216, 217, 218, 219, 220, 221, 222, 223, 224, 225, 226, 227, 228, 229, 230, 231, 232, 233, 234, 235, 236, 237, 238, 239, 240, 241, 242, 243, 244, 245, 246, 247, 248, 249, 250, 251, 252, 253, 254, 255, 256, 257, 258, 259, 260, 261, 262, 263, 264, 265, 266, 267, 268, 269, 270, 271, 272, 273, 274, 275, 276, 277, 278, 279, 280, 281, 282, 283, 284, 285, 286, 287, 288, 289, 290, 291, 292, 293, 294, 295, 296, 297, 298, 299, 300, 301, 302, 303, 304, 305, 306, 307, 308, 309, 310, 311, 312, 313, 314, 315, 316, 317, 318, 319, 320, 321, 322, 323, 324, 325, 326, 327, 328, 329, 330, 331, 332, 333, 334, 335, 336, 337, 338, 339, 340, 341, 342, 343, 344, 345, 346, 347, 348, 349, 350, 351, 352, 353, 354, 355, 356, 357, 358, 359, 360, 361, 362, 363, 364, 365, 366, 367, 368, 369, 370, 371, 372, 373, 374, 375],
      "AcquisitionTime": ["162538.520000", "162539.800000", "162541.080000", "162542.360000", "162543.640000", "162544.920000", "162546.200000", "162547.480000", "162548.760000", "162550.040000", "162551.320000", "162552.600000", "162553.880000", "162555.160000", "162556.440000", "162557.720000", "162559.000000", "162600.280000", "162601.560000", "162602.840000", "162604.120000", "162605.400000", "162606.680000", "162607.960000", "162609.240000", "162610.520000", "162611.800000", "162613.080000", "162614.360000", "162615.640000", "162616.920000", "162618.200000", "162619.480000", "162620.760000", "162622.040000", "162623.320000", "162624.600000", "162625.880000", "162627.160000", "162628.440000", "162629.720000", "162631.000000", "162632.280000", "162633.560000", "162634.840000", "162636.120000", "162637.400000", "162638.680000", "162639.960000", "162641.240000", "162642.520000", "162643.800000", "162645.080000", "162646.360000", "162647.640000", "162648.920000", "162650.200000", "162651.480000", "162652.760000", "162654.040000", "162655.320000", "162656.600000", "162657.880000", "162659.160000", "162700.440000", "162701.720000", "162703.000000", "162704.280000", "162705.560000", "162706.840000", "162708.120000", "162709.400000", "162710.680000", "162711.960000", "162713.240000", "162714.520000", "162715.800000", "162717.080000", "162718.360000", "162719.640000", "162720.920000", "162722.200000", "162723.480000", "162724.760000", "162726.040000", "162727.320000", "162728.600000", "162729.880000", "162731.160000", "162732.440000", "162733.720000", "162735.000000", "162736.280000", "162737.560000", "162738.840000", "162740.120000", "162741.400000", "162742.680000", "162743.960000", "162745.240000", "162746.520000", "162747.800000", "162749.080000", "162750.360000", "162751.640000", "162752.920000", "162754.200000", "162755.480000", "162756.760000", "162758.040000", "162759.320000", "162800.600000", "162801.880000", "162803.160000", "162804.440000", "162805.720000", "162807.000000", "162808.280000", "162809.560000", "162810.840000", "162812.120000", "162813.400000", "162814.680000", "162815.960000", "162817.240000", "162818.520000", "162819.800000", "162821.080000", "162822.360000", "162823.640000", "162824.920000", "162826.200000", "162827.480000", "162828.760000", "162830.040000", "162831.320000", "162832.600000", "162833.880000", "162835.160000", "162836.440000", "162837.720000", "162839.000000", "162840.280000", "162841.560000", "162842.840000", "162844.120000", "162845.400000", "162846.680000", "162847.960000", "162849.240000", "162850.520000", "162851.800000", "162853.080000", "162854.360000", "162855.640000", "162856.920000", "162858.200000", "162859.480000", "162900.760000", "162902.040000", "162903.320000", "162904.600000", "162905.880000", "162907.160000", "162908.440000", "162909.720000", "162911.000000", "162912.280000", "162913.560000", "162914.840000", "162916.120000", "162917.400000", "162918.680000", "162919.960000", "162921.240000", "162922.520000", "162923.800000", "162925.080000", "162926.360000", "162927.640000", "162928.920000", "162930.200000", "162931.480000", "162932.760000", "162934.040000", "162935.320000", "162936.600000", "162937.880000", "162939.160000", "162940.440000", "162941.720000", "162943.000000", "162944.280000", "162945.560000", "162946.840000", "162948.120000", "162949.400000", "162950.680000", "162951.960000", "162953.240000", "162954.520000", "162955.800000", "162957.080000", "162958.360000", "162959.640000", "163000.920000", "163002.200000", "163003.480000", "163004.760000", "163006.040000", "163007.320000", "163008.600000", "163009.880000", "163011.160000", "163012.440000", "163013.720000", "163015.000000", "163016.280000", "163017.560000", "163018.840000", "163020.120000", "163021.400000", "163022.680000", "163023.960000", "163025.240000", "163026.520000", "163027.800000", "163029.080000", "163030.360000", "163031.640000", "163032.920000", "163034.200000", "163035.480000", "163036.760000", "163038.040000", "163039.320000", "163040.600000", "163041.880000", "163043.160000", "163044.440000", "163045.720000", "163047.000000", "163048.280000", "163049.560000", "163050.840000", "163052.120000", "163053.400000", "163054.680000", "163055.960000", "163057.240000", "163058.520000", "163059.800000", "163101.080000", "163102.360000", "163103.640000", "163104.920000", "163106.200000", "163107.480000", "163108.760000", "163110.040000", "163111.320000", "163112.600000", "163113.880000", "163115.160000", "163116.440000", "163117.720000", "163119.000000", "163120.280000", "163121.560000", "163122.840000", "163124.120000", "163125.400000", "163126.680000", "163127.960000", "163129.240000", "163130.520000", "163131.800000", "163133.080000", "163134.360000", "163135.640000", "163136.920000", "163138.200000", "163139.480000", "163140.760000", "163142.040000", "163143.320000", "163144.600000", "163145.880000", "163147.160000", "163148.440000", "163149.720000", "163151.000000", "163152.280000", "163153.560000", "163154.840000", "163156.120000", "163157.400000", "163158.680000", "163159.960000", "163201.240000", "163202.520000", "163203.800000", "163205.080000", "163206.360000", "163207.640000", "163208.920000", "163210.200000", "163211.480000", "163212.760000", "163214.040000", "163215.320000", "163216.600000", "163217.880000", "163219.160000", "163220.440000", "163221.720000", "163223.000000", "163224.280000", "163225.560000", "163226.840000", "163228.120000", "163229.400000", "163230.680000", "163231.960000", "163233.240000", "163234.520000", "163235.800000", "163237.080000", "163238.360000", "163239.640000", "163240.920000", "163242.200000", "163243.480000", "163244.760000", "163246.040000", "163247.320000", "163248.600000", "163249.880000", "163251.160000", "163252.440000", "163253.720000", "163255.000000", "163256.280000", "163257.560000", "163258.840000", "163300.120000", "163301.400000", "163302.680000", "163303.960000", "163305.240000", "163306.520000", "163307.800000", "163309.080000", "163310.360000", "163311.640000", "163312.920000", "163314.200000", "163315.480000", "163316.760000", "163318.040000", "163319.320000", "163320.600000", "163321.880000", "163323.160000", "163324.440000", "163325.720000", "163327.000000", "163328.280000", "163329.560000", "163330.840000", "163332.120000", "163333.400000", "163334.680000", "163335.960000", "163337.240000"],
      "ContentTime": ["162619.141000", "162619.144000", "162619.147000", "162619.151000", "162619.154000", "162619.156000", "162619.159000", "162619.162000", "162619.165000", "162619.168000", "162619.171000", "162619.174000", "162619.177000", "162619.180000", "162619.183000", "162619.186000", "162619.189000", "162619.192000", "162619.195000", "162619.198000", "162619.201000", "162619.204000", "162619.207000", "162619.216000", "162619.219000", "162619.222000", "162619.225000", "162619.228000", "162619.231000", "162619.234000", "162619.237000", "162659.136000", "162659.139000", "162659.142000", "162659.145000", "162659.148000", "162659.151000", "162659.154000", "162659.158000", "162659.161000", "162659.164000", "162659.167000", "162659.176000", "162659.179000", "162659.182000", "162659.185000", "162659.188000", "162659.191000", "162659.194000", "162659.197000", "162659.200000", "162659.203000", "162659.206000", "162659.209000", "162659.212000", "162659.215000", "162659.218000", "162659.221000", "162659.224000", "162659.227000", "162659.230000", "162659.233000", "162659.236000", "162739.135000", "162739.138000", "162739.141000", "162739.144000", "162739.147000", "162739.150000", "162739.153000", "162739.156000", "162739.159000", "162739.162000", "162739.165000", "162739.168000", "162739.171000", "162739.174000", "162739.177000", "162739.180000", "162739.183000", "162739.186000", "162739.189000", "162739.192000", "162739.195000", "162739.198000", "162739.201000", "162739.204000", "162739.217000", "162739.220000", "162739.223000", "162739.226000", "162739.229000", "162739.232000", "162739.235000", "162819.136000", "162819.139000", "162819.142000", "162819.145000", "162819.148000", "162819.151000", "162819.154000", "162819.157000", "162819.160000", "162819.163000", "162819.166000", "162819.169000", "162819.172000", "162819.175000", "162819.178000", "162819.181000", "162819.184000", "162819.187000", "162819.190000", "162819.193000", "162819.196000", "162819.199000", "162819.202000", "162819.205000", "162819.208000", "162819.211000", "162819.214000", "162819.217000", "162819.220000", "162819.223000", "162819.226000", "162859.136000", "162859.139000", "162859.142000", "162859.145000", "162859.148000", "162859.151000", "162859.154000", "162859.157000", "162859.160000", "162859.163000", "162859.166000", "162859.169000", "162859.172000", "162859.175000", "162859.178000", "162859.181000", "162859.184000", "162859.187000", "162859.190000", "162859.193000", "162859.196000", "162859.199000", "162859.203000", "162859.206000", "162859.209000", "162859.212000", "162859.215000", "162859.218000", "162859.230000", "162859.234000", "162859.237000", "162939.135000", "162939.138000", "162939.141000", "162939.144000", "162939.147000", "162939.150000", "162939.153000", "162939.156000", "162939.159000", "162939.162000", "162939.165000", "162939.168000", "162939.171000", "162939.174000", "162939.177000", "162939.180000", "162939.183000", "162939.186000", "162939.189000", "162939.192000", "162939.195000", "162939.198000", "162939.201000", "162939.204000", "162939.207000", "162939.210000", "162939.213000", "162939.216000", "162939.219000", "162939.222000", "162939.225000", "162939.228000", "163019.135000", "163019.138000", "163019.141000", "163019.145000", "163019.148000", "163019.151000", "163019.154000", "163019.157000", "163019.160000", "163019.163000", "163019.166000", "163019.169000", "163019.172000", "163019.175000", "163019.178000", "163019.181000", "163019.184000", "163019.187000", "163019.190000", "163019.193000", "163019.196000", "163019.199000", "163019.202000", "163019.205000", "163019.208000", "163019.211000", "163019.214000", "163019.217000", "163019.220000", "163019.223000", "163019.226000", "163059.136000", "163059.139000", "163059.142000", "163059.145000", "163059.148000", "163059.151000", "163059.154000", "163059.157000", "163059.160000", "163059.163000", "163059.166000", "163059.169000", "163059.172000", "163059.175000", "163059.178000", "163059.181000", "163059.184000", "163059.187000", "163059.190000", "163059.193000", "163059.196000", "163059.199000", "163059.202000", "163059.205000", "163059.208000", "163059.211000", "163059.214000", "163059.217000", "163059.220000", "163059.223000", "163059.226000", "163139.136000", "163139.139000", "163139.142000", "163139.154000", "163139.157000", "163139.160000", "163139.163000", "163139.166000", "163139.169000", "163139.172000", "163139.175000", "163139.178000", "163139.181000", "163139.184000", "163139.187000", "163139.190000", "163139.193000", "163139.196000", "163139.199000", "163139.202000", "163139.205000", "163139.208000", "163139.211000", "163139.214000", "163139.217000", "163139.220000", "163139.223000", "163139.226000", "163139.229000", "163139.232000", "163139.237000", "163219.135000", "163219.138000", "163219.142000", "163219.145000", "163219.148000", "163219.151000", "163219.154000", "163219.157000", "163219.159000", "163219.163000", "163219.166000", "163219.169000", "163219.171000", "163219.175000", "163219.178000", "163219.181000", "163219.184000", "163219.187000", "163219.190000", "163219.193000", "163219.195000", "163219.199000", "163219.201000", "163219.204000", "163219.207000", "163219.211000", "163219.214000", "163219.217000", "163219.220000", "163219.223000", "163219.226000", "163219.229000", "163259.136000", "163259.139000", "163259.142000", "163259.146000", "163259.149000", "163259.151000", "163259.154000", "163259.158000", "163259.161000", "163259.164000", "163259.167000", "163259.170000", "163259.173000", "163259.176000", "163259.179000", "163259.182000", "163259.185000", "163259.188000", "163259.191000", "163259.194000", "163259.197000", "163259.200000", "163259.203000", "163259.206000", "163259.209000", "163259.212000", "163259.215000", "163259.218000", "163259.221000", "163259.224000", "163259.227000", "163338.283000", "163338.322000", "163338.325000", "163338.328000", "163338.331000", "163338.334000", "163338.337000", "163338.340000", "163338.343000", "163338.346000", "163338.349000", "163338.352000", "163338.355000", "163338.358000", "163338.361000", "163338.364000", "163338.367000", "163338.370000", "163338.374000", "163338.377000", "163338.379000", "163338.382000", "163338.386000", "163338.389000", "163338.391000", "163338.394000", "163338.398000", "163338.401000", "163338.404000", "163338.406000", "163338.410000"],
      "InstanceCreationTime": ["162619.141000", "162619.144000", "162619.147000", "162619.151000", "162619.154000", "162619.156000", "162619.159000", "162619.162000", "162619.165000", "162619.168000", "162619.171000", "162619.174000", "162619.177000", "162619.180000", "162619.183000", "162619.186000", "162619.189000", "162619.192000", "162619.195000", "162619.198000", "162619.201000", "162619.204000", "162619.207000", "162619.216000", "162619.219000", "162619.222000", "162619.225000", "162619.228000", "162619.231000", "162619.234000", "162619.237000", "162659.136000", "162659.139000", "162659.142000", "162659.145000", "162659.148000", "162659.151000", "162659.154000", "162659.158000", "162659.161000", "162659.164000", "162659.167000", "162659.176000", "162659.179000", "162659.182000", "162659.185000", "162659.188000", "162659.191000", "162659.194000", "162659.197000", "162659.200000", "162659.203000", "162659.206000", "162659.209000", "162659.212000", "162659.215000", "162659.218000", "162659.221000", "162659.224000", "162659.227000", "162659.230000", "162659.233000", "162659.236000", "162739.135000", "162739.138000", "162739.141000", "162739.144000", "162739.147000", "162739.150000", "162739.153000", "162739.156000", "162739.159000", "162739.162000", "162739.165000", "162739.168000", "162739.171000", "162739.174000", "162739.177000", "162739.180000", "162739.183000", "162739.186000", "162739.189000", "162739.192000", "162739.195000", "162739.198000", "162739.201000", "162739.204000", "162739.217000", "162739.220000", "162739.223000", "162739.226000", "162739.229000", "162739.232000", "162739.235000", "162819.136000", "162819.139000", "162819.142000", "162819.145000", "162819.148000", "162819.151000", "162819.154000", "162819.157000", "162819.160000", "162819.163000", "162819.166000", "162819.169000", "162819.172000", "162819.175000", "162819.178000", "162819.181000", "162819.184000", "162819.187000", "162819.190000", "162819.193000", "162819.196000", "162819.199000", "162819.202000", "162819.205000", "162819.208000", "162819.211000", "162819.214000", "162819.217000", "162819.220000", "162819.223000", "162819.226000", "162859.136000", "162859.139000", "162859.142000", "162859.145000", "162859.148000", "162859.151000", "162859.154000", "162859.157000", "162859.160000", "162859.163000", "162859.166000", "162859.169000", "162859.172000", "162859.175000", "162859.178000", "162859.181000", "162859.184000", "162859.187000", "162859.190000", "162859.193000", "162859.196000", "162859.199000", "162859.203000", "162859.206000", "162859.209000", "162859.212000", "162859.215000", "162859.218000", "162859.230000", "162859.234000", "162859.237000", "162939.135000", "162939.138000", "162939.141000", "162939.144000", "162939.147000", "162939.150000", "162939.153000", "162939.156000", "162939.159000", "162939.162000", "162939.165000", "162939.168000", "162939.171000", "162939.174000", "162939.177000", "162939.180000", "162939.183000", "162939.186000", "162939.189000", "162939.192000", "162939.195000", "162939.198000", "162939.201000", "162939.204000", "162939.207000", "162939.210000", "162939.213000", "162939.216000", "162939.219000", "162939.222000", "162939.225000", "162939.228000", "163019.135000", "163019.138000", "163019.141000", "163019.145000", "163019.148000", "163019.151000", "163019.154000", "163019.157000", "163019.160000", "163019.163000", "163019.166000", "163019.169000", "163019.172000", "163019.175000", "163019.178000", "163019.181000", "163019.184000", "163019.187000", "163019.190000", "163019.193000", "163019.196000", "163019.199000", "163019.202000", "163019.205000", "163019.208000", "163019.211000", "163019.214000", "163019.217000", "163019.220000", "163019.223000", "163019.226000", "163059.136000", "163059.139000", "163059.142000", "163059.145000", "163059.148000", "163059.151000", "163059.154000", "163059.157000", "163059.160000", "163059.163000", "163059.166000", "163059.169000", "163059.172000", "163059.175000", "163059.178000", "163059.181000", "163059.184000", "163059.187000", "163059.190000", "163059.193000", "163059.196000", "163059.199000", "163059.202000", "163059.205000", "163059.208000", "163059.211000", "163059.214000", "163059.217000", "163059.220000", "163059.223000", "163059.226000", "163139.136000", "163139.139000", "163139.142000", "163139.154000", "163139.157000", "163139.160000", "163139.163000", "163139.166000", "163139.169000", "163139.172000", "163139.175000", "163139.178000", "163139.181000", "163139.184000", "163139.187000", "163139.190000", "163139.193000", "163139.196000", "163139.199000", "163139.202000", "163139.205000", "163139.208000", "163139.211000", "163139.214000", "163139.217000", "163139.220000", "163139.223000", "163139.226000", "163139.229000", "163139.232000", "163139.237000", "163219.135000", "163219.138000", "163219.142000", "163219.145000", "163219.148000", "163219.151000", "163219.154000", "163219.157000", "163219.159000", "163219.163000", "163219.166000", "163219.169000", "163219.171000", "163219.175000", "163219.178000", "163219.181000", "163219.184000", "163219.187000", "163219.190000", "163219.193000", "163219.195000", "163219.199000", "163219.201000", "163219.204000", "163219.207000", "163219.211000", "163219.214000", "163219.217000", "163219.220000", "163219.223000", "163219.226000", "163219.229000", "163259.136000", "163259.139000", "163259.142000", "163259.146000", "163259.149000", "163259.151000", "163259.154000", "163259.158000", "163259.161000", "163259.164000", "163259.167000", "163259.170000", "163259.173000", "163259.176000", "163259.179000", "163259.182000", "163259.185000", "163259.188000", "163259.191000", "163259.194000", "163259.197000", "163259.200000", "163259.203000", "163259.206000", "163259.209000", "163259.212000", "163259.215000", "163259.218000", "163259.221000", "163259.224000", "163259.227000", "163338.283000", "163338.322000", "163338.325000", "163338.328000", "163338.331000", "163338.334000", "163338.337000", "163338.340000", "163338.343000", "163338.346000", "163338.349000", "163338.352000", "163338.355000", "163338.358000", "163338.361000", "163338.364000", "163338.367000", "163338.370000", "163338.374000", "163338.377000", "163338.379000", "163338.382000", "163338.386000", "163338.389000", "163338.391000", "163338.394000", "163338.398000", "163338.401000", "163338.404000", "163338.406000", "163338.410000"],
      "InstanceNumber": [1, 2, 3, 4, 5, 6, 7, 8, 9, 10, 11, 12, 13, 14, 15, 16, 17, 18, 19, 20, 21, 22, 23, 24, 25, 26, 27, 28, 29, 30, 31, 32, 33, 34, 35, 36, 37, 38, 39, 40, 41, 42, 43, 44, 45, 46, 47, 48, 49, 50, 51, 52, 53, 54, 55, 56, 57, 58, 59, 60, 61, 62, 63, 64, 65, 66, 67, 68, 69, 70, 71, 72, 73, 74, 75, 76, 77, 78, 79, 80, 81, 82, 83, 84, 85, 86, 87, 88, 89, 90, 91, 92, 93, 94, 95, 96, 97, 98, 99, 100, 101, 102, 103, 104, 105, 106, 107, 108, 109, 110, 111, 112, 113, 114, 115, 116, 117, 118, 119, 120, 121, 122, 123, 124, 125, 126, 127, 128, 129, 130, 131, 132, 133, 134, 135, 136, 137, 138, 139, 140, 141, 142, 143, 144, 145, 146, 147, 148, 149, 150, 151, 152, 153, 154, 155, 156, 157, 158, 159, 160, 161, 162, 163, 164, 165, 166, 167, 168, 169, 170, 171, 172, 173, 174, 175, 176, 177, 178, 179, 180, 181, 182, 183, 184, 185, 186, 187, 188, 189, 190, 191, 192, 193, 194, 195, 196, 197, 198, 199, 200, 201, 202, 203, 204, 205, 206, 207, 208, 209, 210, 211, 212, 213, 214, 215, 216, 217, 218, 219, 220, 221, 222, 223, 224, 225, 226, 227, 228, 229, 230, 231, 232, 233, 234, 235, 236, 237, 238, 239, 240, 241, 242, 243, 244, 245, 246, 247, 248, 249, 250, 251, 252, 253, 254, 255, 256, 257, 258, 259, 260, 261, 262, 263, 264, 265, 266, 267, 268, 269, 270, 271, 272, 273, 274, 275, 276, 277, 278, 279, 280, 281, 282, 283, 284, 285, 286, 287, 288, 289, 290, 291, 292, 293, 294, 295, 296, 297, 298, 299, 300, 301, 302, 303, 304, 305, 306, 307, 308, 309, 310, 311, 312, 313, 314, 315, 316, 317, 318, 319, 320, 321, 322, 323, 324, 325, 326, 327, 328, 329, 330, 331, 332, 333, 334, 335, 336, 337, 338, 339, 340, 341, 342, 343, 344, 345, 346, 347, 348, 349, 350, 351, 352, 353, 354, 355, 356, 357, 358, 359, 360, 361, 362, 363, 364, 365, 366, 367, 368, 369, 370, 371, 372, 373, 374, 375],
