{
  "AcquisitionMatrixPE": 108,
  "AcquisitionNumber": 1,
  "AcquisitionTime": "16:06:44.192500",
  "BandwidthPerPixelPhaseEncode": 15.964,
  "BaseResolution": 108,
  "BodyPartExamined": "BRAIN",
  "ConsistencyInfo": "N4_VE11C_LATEST_20160120",
  "ConversionSoftware": "dcm2niix",
  "ConversionSoftwareVersion": "v1.0.20180622 GCC6.3.0",
  "DerivedVendorReportedEchoSpacing": 0.000580009,
  "DeviceSerialNumber": "66054",
  "DwellTime": 2.1e-06,
  "EchoTime": 0.031,
  "EchoTrainLength": 95,
  "EffectiveEchoSpacing": 0.000580009,
  "FlipAngle": 64,
  "ImageOrientationPatientDICOM": [0.999361, 0.0267022, 0.0237655, -0.0174439, 0.944591, -0.327785],
  "ImageType": [
    "ORIGINAL",
    "PRIMARY",
    "M",
    "ND",
    "MOSAIC"
],
  "InPlanePhaseEncodingDirectionDICOM": "COL",
  "InstitutionAddress": "Chemin_des_Mines_9_Geneve_District_CH_1211",
  "InstitutionName": "Fondation_Campus_Biotech_Geneva",
  "InstitutionalDepartmentName": "Department",
  "MRAcquisitionType": "2D",
  "MagneticFieldStrength": 3,
  "Manufacturer": "Siemens",
  "ManufacturersModelName": "Prisma",
  "Modality": "MR",
  "MultibandAccelerationFactor": 4,
  "PartialFourier": 0.875,
  "PatientPosition": "HFS",
  "PercentPhaseFOV": 100,
  "PhaseEncodingDirection": "j-",
  "PhaseEncodingSteps": 95,
  "PhaseResolution": 1,
  "PixelBandwidth": 2205,
  "ProcedureStepDescription": "J.DRM_Michael",
  "ProtocolName": "Rest_bold_s4_TR1.28",
  "PulseSequenceDetails": "%SiemensSeq%_ep2d_bold",
  "ReceiveCoilActiveElements": "HC1-7;NC1,2",
  "ReceiveCoilName": "HeadNeck_64",
  "ReconMatrixPE": 108,
  "RepetitionTime": 1.28,
  "SAR": 0.0718901,
  "ScanOptions": "PFP_FS",
  "ScanningSequence": "EP",
  "SequenceName": "_epfid2d1_108",
  "SequenceVariant": "SK",
  "SeriesDescription": "Rest_bold_s4_TR1.28",
  "SeriesNumber": 10,
  "ShimSetting": [-1248, -11673, 6469, 587, 155, -191, -60, 5],
  "SliceThickness": 2,
  "SliceTiming": [0.945, 0, 0.63, 0.0775, 0.7075, 0.1575, 0.7875, 0.235, 0.865, 0.3925, 1.0225, 0.4725, 1.1025, 0.55, 1.18, 0.315, 0.945, 0, 0.63, 0.0775, 0.7075, 0.1575, 0.7875, 0.235, 0.865, 0.3925, 1.0225, 0.4725, 1.1025, 0.55, 1.18, 0.315, 0.945, 0, 0.63, 0.0775, 0.7075, 0.1575, 0.7875, 0.235, 0.865, 0.3925, 1.0225, 0.4725, 1.1025, 0.55, 1.18, 0.315, 0.945, 0, 0.63, 0.0775, 0.7075, 0.1575, 0.7875, 0.235, 0.865, 0.3925, 1.0225, 0.4725, 1.1025, 0.55, 1.18, 0.315],
  "SoftwareVersions": "syngo_MR_E11",
  "SpacingBetweenSlices": 2,
  "StationName": "AWP66054",
  "TaskName": "rest",
  "TotalReadoutTime": 0.0620609,
  "TxRefAmp": 249.558,
  "dcmmeta_affine": [
    [-1.9894684553146362, -0.034726254642009735, 0.06240252032876015, 110.330810546875],
    [-0.05315724015235901, 1.8804364204406738, -0.6543217897415161, -60.17472457885742],
    [0.04731091111898422, 0.6525348424911499, 1.8889068365097046, -84.4303207397461],
    [0.0, 0.0, 0.0, 1.0]
],
  "dcmmeta_reorient_transform": [
    [0.0, -1.0, 0.0, 107.0],
    [1.0, 0.0, 0.0, 0.0],
    [0.0, 0.0, 1.0, 0.0],
    [0.0, 0.0, 0.0, 1.0]
],
  "dcmmeta_shape": [108, 108, 64, 250],
  "dcmmeta_slice_dim": 2,
  "dcmmeta_version": 0.6,
  "global": {
    "const": {
      "AccessionNumber": "",
      "AcquisitionMatrix": [108, 0, 0, 108],
      "AngioFlag": "N",
      "BitsAllocated": 16,
      "BitsStored": 12,
      "BodyPartExamined": "BRAIN",
      "Columns": 864,
      "EchoNumbers": 1,
      "EchoTime": 31.0,
      "EchoTrainLength": 95,
      "FlipAngle": 64.0,
      "HighBit": 11,
      "ImageOrientationPatient": [0.99936089190462, 0.02670224057923, 0.02376548084182, -0.0174438862009, 0.94459131012589, -0.3277849411868],
      "ImagePositionPatient": [-845.5076601689, -871.93038453435, 214.16555324932],
      "ImageType": [
        "ORIGINAL",
        "PRIMARY",
        "M",
        "ND",
        "MOSAIC"
],
      "ImagedNucleus": "1H",
      "ImagingFrequency": 123.257407,
      "InPlanePhaseEncodingDirection": "COL",
      "MRAcquisitionType": "2D",
      "MagneticFieldStrength": 3.0,
      "Manufacturer": "SIEMENS",
      "ManufacturerModelName": "Prisma",
      "Modality": "MR",
      "NumberOfAverages": 1.0,
      "NumberOfPhaseEncodingSteps": 95,
      "PercentPhaseFieldOfView": 100.0,
      "PercentSampling": 100.0,
      "PerformedProcedureStepStartTime": "151514.126000",
      "PhotometricInterpretation": "MONOCHROME2",
      "PixelBandwidth": 2205.0,
      "PixelRepresentation": 0,
      "PixelSpacing": [1.990740776062, 1.990740776062],
      "PositionReferenceIndicator": "",
      "ProtocolName": "Rest_bold_s4_TR1.28",
      "RepetitionTime": 1280.0,
      "Rows": 864,
      "SAR": 0.07189010367122,
      "SamplesPerPixel": 1,
      "ScanOptions": [
        "PFP",
        "FS"
],
      "ScanningSequence": "EP",
      "SequenceName": "*epfid2d1_108",
      "SequenceVariant": "SK",
      "SeriesDescription": "Rest_bold_s4_TR1.28",
      "SeriesNumber": 10,
      "SeriesTime": "160659.136000",
      "SliceLocation": -56.611230074761,
      "SliceThickness": 2.0,
      "SmallestImagePixelValue": 0,
      "SoftwareVersions": "syngo MR E11",
      "SpacingBetweenSlices": 2.0000000558295,
      "SpecificCharacterSet": "ISO_IR 100",
      "StudyID": "1",
      "StudyTime": "151514.060000",
      "TransmitCoilName": "Body",
      "VariableFlipAngleFlag": "N",
      "WindowCenterWidthExplanation": "Algo1",
      "dBdt": 0.0},
    "slices": {}
  },
  "time": {
    "samples": {
      "AcquisitionNumber": [1, 2, 3, 4, 5, 6, 7, 8, 9, 10, 11, 12, 13, 14, 15, 16, 17, 18, 19, 20, 21, 22, 23, 24, 25, 26, 27, 28, 29, 30, 31, 32, 33, 34, 35, 36, 37, 38, 39, 40, 41, 42, 43, 44, 45, 46, 47, 48, 49, 50, 51, 52, 53, 54, 55, 56, 57, 58, 59, 60, 61, 62, 63, 64, 65, 66, 67, 68, 69, 70, 71, 72, 73, 74, 75, 76, 77, 78, 79, 80, 81, 82, 83, 84, 85, 86, 87, 88, 89, 90, 91, 92, 93, 94, 95, 96, 97, 98, 99, 100, 101, 102, 103, 104, 105, 106, 107, 108, 109, 110, 111, 112, 113, 114, 115, 116, 117, 118, 119, 120, 121, 122, 123, 124, 125, 126, 127, 128, 129, 130, 131, 132, 133, 134, 135, 136, 137, 138, 139, 140, 141, 142, 143, 144, 145, 146, 147, 148, 149, 150, 151, 152, 153, 154, 155, 156, 157, 158, 159, 160, 161, 162, 163, 164, 165, 166, 167, 168, 169, 170, 171, 172, 173, 174, 175, 176, 177, 178, 179, 180, 181, 182, 183, 184, 185, 186, 187, 188, 189, 190, 191, 192, 193, 194, 195, 196, 197, 198, 199, 200, 201, 202, 203, 204, 205, 206, 207, 208, 209, 210, 211, 212, 213, 214, 215, 216, 217, 218, 219, 220, 221, 222, 223, 224, 225, 226, 227, 228, 229, 230, 231, 232, 233, 234, 235, 236, 237, 238, 239, 240, 241, 242, 243, 244, 245, 246, 247, 248, 249, 250],
      "AcquisitionTime": ["160644.192500", "160645.472500", "160646.752500", "160648.032500", "160649.312500", "160650.592500", "160651.872500", "160653.152500", "160654.432500", "160655.712500", "160656.992500", "160658.272500", "160659.552500", "160700.832500", "160702.112500", "160703.392500", "160704.672500", "160705.952500", "160707.232500", "160708.512500", "160709.792500", "160711.072500", "160712.352500", "160713.632500", "160714.912500", "160716.192500", "160717.472500", "160718.752500", "160720.032500", "160721.312500", "160722.592500", "160723.872500", "160725.152500", "160726.432500", "160727.712500", "160728.992500", "160730.272500", "160731.552500", "160732.832500", "160734.112500", "160735.392500", "160736.672500", "160737.952500", "160739.232500", "160740.512500", "160741.792500", "160743.072500", "160744.352500", "160745.632500", "160746.912500", "160748.192500", "160749.472500", "160750.752500", "160752.032500", "160753.312500", "160754.592500", "160755.872500", "160757.152500", "160758.432500", "160759.712500", "160800.992500", "160802.272500", "160803.552500", "160804.832500", "160806.112500", "160807.392500", "160808.672500", "160809.952500", "160811.232500", "160812.512500", "160813.792500", "160815.072500", "160816.352500", "160817.632500", "160818.912500", "160820.192500", "160821.472500", "160822.752500", "160824.032500", "160825.312500", "160826.592500", "160827.872500", "160829.152500", "160830.432500", "160831.712500", "160832.992500", "160834.272500", "160835.552500", "160836.832500", "160838.112500", "160839.392500", "160840.672500", "160841.952500", "160843.232500", "160844.512500", "160845.792500", "160847.072500", "160848.352500", "160849.632500", "160850.912500", "160852.192500", "160853.472500", "160854.752500", "160856.032500", "160857.312500", "160858.592500", "160859.872500", "160901.152500", "160902.432500", "160903.712500", "160904.992500", "160906.272500", "160907.552500", "160908.832500", "160910.112500", "160911.392500", "160912.672500", "160913.952500", "160915.232500", "160916.512500", "160917.792500", "160919.072500", "160920.352500", "160921.632500", "160922.912500", "160924.192500", "160925.472500", "160926.752500", "160928.032500", "160929.312500", "160930.592500", "160931.872500", "160933.152500", "160934.432500", "160935.712500", "160936.992500", "160938.272500", "160939.552500", "160940.832500", "160942.112500", "160943.392500", "160944.672500", "160945.952500", "160947.232500", "160948.512500", "160949.792500", "160951.072500", "160952.352500", "160953.632500", "160954.912500", "160956.192500", "160957.472500", "160958.752500", "161000.032500", "161001.312500", "161002.592500", "161003.872500", "161005.152500", "161006.432500", "161007.712500", "161008.992500", "161010.272500", "161011.552500", "161012.832500", "161014.112500", "161015.392500", "161016.672500", "161017.952500", "161019.232500", "161020.512500", "161021.792500", "161023.072500", "161024.352500", "161025.632500", "161026.912500", "161028.192500", "161029.472500", "161030.752500", "161032.032500", "161033.312500", "161034.592500", "161035.872500", "161037.152500", "161038.432500", "161039.712500", "161040.992500", "161042.272500", "161043.552500", "161044.832500", "161046.112500", "161047.392500", "161048.672500", "161049.952500", "161051.232500", "161052.512500", "161053.792500", "161055.072500", "161056.352500", "161057.632500", "161058.912500", "161100.192500", "161101.472500", "161102.752500", "161104.032500", "161105.312500", "161106.592500", "161107.872500", "161109.152500", "161110.432500", "161111.712500", "161112.992500", "161114.272500", "161115.552500", "161116.832500", "161118.112500", "161119.392500", "161120.672500", "161121.952500", "161123.232500", "161124.512500", "161125.792500", "161127.072500", "161128.352500", "161129.632500", "161130.912500", "161132.192500", "161133.472500", "161134.752500", "161136.032500", "161137.312500", "161138.592500", "161139.872500", "161141.152500", "161142.432500", "161143.712500", "161144.992500", "161146.272500", "161147.552500", "161148.832500", "161150.112500", "161151.392500", "161152.672500", "161153.952500", "161155.232500", "161156.512500", "161157.792500", "161159.072500", "161200.352500", "161201.632500", "161202.912500"],
      "ContentTime": ["160659.140000", "160659.144000", "160659.147000", "160659.151000", "160659.154000", "160659.157000", "160659.160000", "160659.163000", "160659.166000", "160659.180000", "160659.183000", "160659.186000", "160739.136000", "160739.139000", "160739.142000", "160739.145000", "160739.148000", "160739.151000", "160739.158000", "160739.161000", "160739.164000", "160739.167000", "160739.170000", "160739.173000", "160739.176000", "160739.178000", "160739.182000", "160739.185000", "160739.187000", "160739.190000", "160739.193000", "160739.196000", "160739.199000", "160739.202000", "160739.205000", "160739.208000", "160739.211000", "160739.214000", "160739.217000", "160739.220000", "160739.223000", "160739.226000", "160739.229000", "160819.136000", "160819.139000", "160819.142000", "160819.145000", "160819.148000", "160819.151000", "160819.154000", "160819.157000", "160819.160000", "160819.163000", "160819.166000", "160819.169000", "160819.172000", "160819.175000", "160819.178000", "160819.181000", "160819.184000", "160819.187000", "160819.190000", "160819.193000", "160819.196000", "160819.199000", "160819.202000", "160819.205000", "160819.208000", "160819.211000", "160819.214000", "160819.217000", "160819.220000", "160819.223000", "160819.226000", "160859.135000", "160859.138000", "160859.141000", "160859.144000", "160859.147000", "160859.156000", "160859.159000", "160859.162000", "160859.165000", "160859.168000", "160859.171000", "160859.174000", "160859.177000", "160859.180000", "160859.183000", "160859.186000", "160859.189000", "160859.192000", "160859.195000", "160859.198000", "160859.201000", "160859.204000", "160859.207000", "160859.210000", "160859.213000", "160859.216000", "160859.219000", "160859.222000", "160859.239000", "160859.242000", "160859.245000", "160939.137000", "160939.143000", "160939.148000", "160939.151000", "160939.154000", "160939.157000", "160939.160000", "160939.163000", "160939.166000", "160939.169000", "160939.172000", "160939.175000", "160939.178000", "160939.181000", "160939.184000", "160939.187000", "160939.190000", "160939.193000", "160939.196000", "160939.199000", "160939.202000", "160939.205000", "160939.208000", "160939.211000", "160939.214000", "160939.217000", "160939.220000", "160939.224000", "160939.227000", "160939.230000", "160939.233000", "161019.136000", "161019.139000", "161019.142000", "161019.145000", "161019.157000", "161019.160000", "161019.163000", "161019.166000", "161019.169000", "161019.172000", "161019.175000", "161019.178000", "161019.181000", "161019.184000", "161019.187000", "161019.190000", "161019.193000", "161019.196000", "161019.199000", "161019.202000", "161019.205000", "161019.208000", "161019.211000", "161019.214000", "161019.217000", "161019.220000", "161019.223000", "161019.226000", "161019.229000", "161019.232000", "161019.235000", "161019.238000", "161059.135000", "161059.138000", "161059.141000", "161059.144000", "161059.147000", "161059.150000", "161059.153000", "161059.156000", "161059.159000", "161059.162000", "161059.171000", "161059.174000", "161059.177000", "161059.180000", "161059.183000", "161059.186000", "161059.189000", "161059.192000", "161059.195000", "161059.198000", "161059.201000", "161059.204000", "161059.207000", "161059.210000", "161059.213000", "161059.216000", "161059.219000", "161059.222000", "161059.225000", "161059.228000", "161059.231000", "161139.135000", "161139.138000", "161139.141000", "161139.144000", "161139.147000", "161139.150000", "161139.153000", "161139.156000", "161139.159000", "161139.162000", "161139.165000", "161139.168000", "161139.171000", "161139.174000", "161139.177000", "161139.180000", "161139.183000", "161139.186000", "161139.189000", "161139.192000", "161139.195000", "161139.198000", "161139.201000", "161139.204000", "161139.207000", "161139.210000", "161139.213000", "161139.216000", "161139.219000", "161139.222000", "161139.225000", "161203.802000", "161203.828000", "161203.831000", "161203.835000", "161203.838000", "161203.841000", "161203.844000", "161203.848000", "161203.851000", "161203.854000", "161203.857000", "161203.860000", "161203.863000", "161203.866000", "161203.869000", "161203.872000", "161203.875000", "161203.878000", "161203.881000", "161203.884000"],
      "InstanceCreationTime": ["160659.140000", "160659.144000", "160659.147000", "160659.151000", "160659.154000", "160659.157000", "160659.160000", "160659.163000", "160659.166000", "160659.180000", "160659.183000", "160659.186000", "160739.136000", "160739.139000", "160739.142000", "160739.145000", "160739.148000", "160739.151000", "160739.158000", "160739.161000", "160739.164000", "160739.167000", "160739.170000", "160739.173000", "160739.176000", "160739.178000", "160739.182000", "160739.185000", "160739.187000", "160739.190000", "160739.193000", "160739.196000", "160739.199000", "160739.202000", "160739.205000", "160739.208000", "160739.211000", "160739.214000", "160739.217000", "160739.220000", "160739.223000", "160739.226000", "160739.229000", "160819.136000", "160819.139000", "160819.142000", "160819.145000", "160819.148000", "160819.151000", "160819.154000", "160819.157000", "160819.160000", "160819.163000", "160819.166000", "160819.169000", "160819.172000", "160819.175000", "160819.178000", "160819.181000", "160819.184000", "160819.187000", "160819.190000", "160819.193000", "160819.196000", "160819.199000", "160819.202000", "160819.205000", "160819.208000", "160819.211000", "160819.214000", "160819.217000", "160819.220000", "160819.223000", "160819.226000", "160859.135000", "160859.138000", "160859.141000", "160859.144000", "160859.147000", "160859.156000", "160859.159000", "160859.162000", "160859.165000", "160859.168000", "160859.171000", "160859.174000", "160859.177000", "160859.180000", "160859.183000", "160859.186000", "160859.189000", "160859.192000", "160859.195000", "160859.198000", "160859.201000", "160859.204000", "160859.207000", "160859.210000", "160859.213000", "160859.216000", "160859.219000", "160859.222000", "160859.239000", "160859.242000", "160859.245000", "160939.137000", "160939.143000", "160939.148000", "160939.151000", "160939.154000", "160939.157000", "160939.160000", "160939.163000", "160939.166000", "160939.169000", "160939.172000", "160939.175000", "160939.178000", "160939.181000", "160939.184000", "160939.187000", "160939.190000", "160939.193000", "160939.196000", "160939.199000", "160939.202000", "160939.205000", "160939.208000", "160939.211000", "160939.214000", "160939.217000", "160939.220000", "160939.224000", "160939.227000", "160939.230000", "160939.233000", "161019.136000", "161019.139000", "161019.142000", "161019.145000", "161019.157000", "161019.160000", "161019.163000", "161019.166000", "161019.169000", "161019.172000", "161019.175000", "161019.178000", "161019.181000", "161019.184000", "161019.187000", "161019.190000", "161019.193000", "161019.196000", "161019.199000", "161019.202000", "161019.205000", "161019.208000", "161019.211000", "161019.214000", "161019.217000", "161019.220000", "161019.223000", "161019.226000", "161019.229000", "161019.232000", "161019.235000", "161019.238000", "161059.135000", "161059.138000", "161059.141000", "161059.144000", "161059.147000", "161059.150000", "161059.153000", "161059.156000", "161059.159000", "161059.162000", "161059.171000", "161059.174000", "161059.177000", "161059.180000", "161059.183000", "161059.186000", "161059.189000", "161059.192000", "161059.195000", "161059.198000", "161059.201000", "161059.204000", "161059.207000", "161059.210000", "161059.213000", "161059.216000", "161059.219000", "161059.222000", "161059.225000", "161059.228000", "161059.231000", "161139.135000", "161139.138000", "161139.141000", "161139.144000", "161139.147000", "161139.150000", "161139.153000", "161139.156000", "161139.159000", "161139.162000", "161139.165000", "161139.168000", "161139.171000", "161139.174000", "161139.177000", "161139.180000", "161139.183000", "161139.186000", "161139.189000", "161139.192000", "161139.195000", "161139.198000", "161139.201000", "161139.204000", "161139.207000", "161139.210000", "161139.213000", "161139.216000", "161139.219000", "161139.222000", "161139.225000", "161203.802000", "161203.828000", "161203.831000", "161203.835000", "161203.838000", "161203.841000", "161203.844000", "161203.848000", "161203.851000", "161203.854000", "161203.857000", "161203.860000", "161203.863000", "161203.866000", "161203.869000", "161203.872000", "161203.875000", "161203.878000", "161203.881000", "161203.884000"],
      "InstanceNumber": [1, 2, 3, 4, 5, 6, 7, 8, 9, 10, 11, 12, 13, 14, 15, 16, 17, 18, 19, 20, 21, 22, 23, 24, 25, 26, 27, 28, 29, 30, 31, 32, 33, 34, 35, 36, 37, 38, 39, 40, 41, 42, 43, 44, 45, 46, 47, 48, 49, 50, 51, 52, 53, 54, 55, 56, 57, 58, 59, 60, 61, 62, 63, 64, 65, 66, 67, 68, 69, 70, 71, 72, 73, 74, 75, 76, 77, 78, 79, 80, 81, 82, 83, 84, 85, 86, 87, 88, 89, 90, 91, 92, 93, 94, 95, 96, 97, 98, 99, 100, 101, 102, 103, 104, 105, 106, 107, 108, 109, 110, 111, 112, 113, 114, 115, 116, 117, 118, 119, 120, 121, 122, 123, 124, 125, 126, 127, 128, 129, 130, 131, 132, 133, 134, 135, 136, 137, 138, 139, 140, 141, 142, 143, 144, 145, 146, 147, 148, 149, 150, 151, 152, 153, 154, 155, 156, 157, 158, 159, 160, 161, 162, 163, 164, 165, 166, 167, 168, 169, 170, 171, 172, 173, 174, 175, 176, 177, 178, 179, 180, 181, 182, 183, 184, 185, 186, 187, 188, 189, 190, 191, 192, 193, 194, 195, 196, 197, 198, 199, 200, 201, 202, 203, 204, 205, 206, 207, 208, 209, 210, 211, 212, 213, 214, 215, 216, 217, 218, 219, 220, 221, 222, 223, 224, 225, 226, 227, 228, 229, 230, 231, 232, 233, 234, 235, 236, 237, 238, 239, 240, 241, 242, 243, 244, 245, 246, 247, 248, 249, 250],
      "LargestImagePixelValue": [2416, 2262, 2222, 2235, 2201, 2209, 2120, 2163, 2120, 2140, 2216, 2083, 2133, 2188, 2166, 2080, 2135, 2129, 2122, 2162, 2159, 2135, 2167, 2125, 2106, 2132, 2207, 2111, 2178, 2126, 2126, 2217, 2166, 2116, 2195, 2169, 2165, 2152, 2154, 2115, 2199, 2141, 2166, 2153, 2126, 2170, 2181, 2093, 2153, 2150, 2156, 2186, 2186, 2172, 2207, 2143, 2141, 2117, 2099, 2160, 2161, 2118, 2153, 2131, 2158, 2192, 2124, 2130, 2173, 2125, 2065, 2154, 2147, 2197, 2189, 2092, 2136, 2151, 2136, 2128, 2113, 2106, 2162, 2088, 2153, 2155, 2111, 2116, 2082, 2133, 2114, 2112, 2122, 2139, 2157, 2083, 2115, 2106, 2128, 2124, 2145, 2155, 2149, 2121, 2100, 2118, 2104, 2154, 2119, 2109, 2140, 2098, 2151, 2137, 2076, 2154, 2100, 2091, 2186, 2130, 2127, 2082, 2122, 2159, 2131, 2100, 2145, 2160, 2143, 2130, 2161, 2155, 2139, 2168, 2196, 2217, 2138, 2177, 2165, 2160, 2168, 2180, 2174, 2149, 2153, 2175, 2163, 2179, 2139, 2150, 2153, 2144, 2186, 2109, 2148, 2131, 2141, 2121, 2160, 2125, 2125, 2091, 2123, 2139, 2125, 2122, 2146, 2122, 2162, 2097, 2147, 2150, 2143, 2121, 2150, 2147, 2121, 2166, 2167, 2100, 2139, 2108, 2135, 2136, 2103, 2160, 2133, 2147, 2151, 2168, 2088, 2069, 2137, 2146, 2118, 2062, 2060, 2138, 2115, 2095, 2103, 2134, 2149, 2141, 2097, 2128, 2117, 2124, 2140, 2136, 2093, 2093, 2139, 2119, 2123, 2110, 2117, 2094, 2105, 2135, 2142, 2133, 2122, 2147, 2172, 2133, 2110, 2140, 2134, 2111, 2140, 2159, 2100, 2079, 2080, 2101, 2108, 2094, 2104, 2116, 2121, 2107, 2120, 2106, 2100, 2115, 2073, 2119, 2122, 2121],
      "WindowCenter": [610.0, 607.0, 605.0, 605.0, 605.0, 605.0, 605.0, 606.0, 605.0, 605.0, 606.0, 604.0, 605.0, 605.0, 604.0, 604.0, 604.0, 604.0, 604.0, 606.0, 606.0, 606.0, 605.0, 604.0, 604.0, 604.0, 604.0, 603.0, 605.0, 604.0, 603.0, 604.0, 603.0, 602.0, 604.0, 603.0, 603.0, 603.0, 603.0, 602.0, 603.0, 602.0, 603.0, 603.0, 602.0, 603.0, 603.0, 603.0, 604.0, 603.0, 603.0, 604.0, 604.0, 605.0, 605.0, 604.0, 604.0, 603.0, 603.0, 603.0, 603.0, 603.0, 604.0, 604.0, 605.0, 605.0, 603.0, 603.0, 602.0, 604.0, 606.0, 606.0, 604.0, 604.0, 604.0, 602.0, 603.0, 603.0, 603.0, 602.0, 602.0, 602.0, 604.0, 603.0, 605.0, 605.0, 603.0, 602.0, 602.0, 603.0, 603.0, 603.0, 603.0, 603.0, 602.0, 601.0, 602.0, 602.0, 603.0, 603.0, 604.0, 604.0, 604.0, 603.0, 603.0, 603.0, 602.0, 604.0, 603.0, 603.0, 603.0, 602.0, 603.0, 603.0, 603.0, 604.0, 603.0, 602.0, 604.0, 605.0, 603.0, 602.0, 601.0, 601.0, 600.0, 599.0, 601.0, 602.0, 602.0, 603.0, 604.0, 604.0, 604.0, 604.0, 604.0, 605.0, 603.0, 603.0, 602.0, 602.0, 602.0, 603.0, 603.0, 603.0, 604.0, 604.0, 604.0, 604.0, 603.0, 603.0, 603.0, 602.0, 604.0, 603.0, 604.0, 604.0, 603.0, 602.0, 602.0, 601.0, 601.0, 601.0, 601.0, 602.0, 603.0, 603.0, 603.0, 602.0, 601.0, 600.0, 602.0, 602.0, 603.0, 603.0, 604.0, 604.0, 604.0, 604.0, 604.0, 602.0, 603.0, 603.0, 603.0, 603.0, 603.0, 604.0, 604.0, 604.0, 604.0, 604.0, 602.0, 602.0, 603.0, 603.0, 602.0, 602.0, 602.0, 603.0, 602.0, 602.0, 602.0, 602.0, 602.0, 603.0, 604.0, 604.0, 604.0, 604.0, 603.0, 602.0, 602.0, 602.0, 603.0, 602.0, 603.0, 603.0, 602.0, 601.0, 601.0, 603.0, 603.0, 603.0, 602.0, 603.0, 603.0, 602.0, 602.0, 603.0, 603.0, 603.0, 603.0, 603.0, 603.0, 602.0, 602.0, 602.0, 603.0, 603.0, 603.0, 603.0, 602.0, 601.0, 603.0, 602.0, 601.0, 601.0, 602.0, 603.0, 603.0, 603.0],
      "WindowWidth": [1282.0, 1274.0, 1270.0, 1268.0, 1269.0, 1269.0, 1271.0, 1272.0, 1270.0, 1269.0, 1271.0, 1267.0, 1269.0, 1270.0, 1268.0, 1267.0, 1268.0, 1267.0, 1269.0, 1272.0, 1271.0, 1271.0, 1271.0, 1268.0, 1268.0, 1267.0, 1267.0, 1266.0, 1268.0, 1267.0, 1266.0, 1267.0, 1266.0, 1264.0, 1266.0, 1266.0, 1266.0, 1266.0, 1265.0, 1264.0, 1265.0, 1263.0, 1264.0, 1264.0, 1264.0, 1264.0, 1266.0, 1265.0, 1266.0, 1266.0, 1265.0, 1267.0, 1268.0, 1269.0, 1269.0, 1267.0, 1267.0, 1266.0, 1264.0, 1265.0, 1265.0, 1265.0, 1268.0, 1267.0, 1269.0, 1268.0, 1266.0, 1266.0, 1263.0, 1269.0, 1272.0, 1272.0, 1267.0, 1268.0, 1266.0, 1264.0, 1264.0, 1265.0, 1264.0, 1263.0, 1262.0, 1262.0, 1267.0, 1267.0, 1269.0, 1269.0, 1265.0, 1264.0, 1263.0, 1265.0, 1266.0, 1267.0, 1266.0, 1264.0, 1263.0, 1261.0, 1262.0, 1262.0, 1264.0, 1265.0, 1267.0, 1268.0, 1267.0, 1266.0, 1265.0, 1265.0, 1264.0, 1267.0, 1266.0, 1265.0, 1266.0, 1264.0, 1266.0, 1266.0, 1266.0, 1268.0, 1266.0, 1264.0, 1268.0, 1269.0, 1265.0, 1263.0, 1262.0, 1261.0, 1259.0, 1258.0, 1261.0, 1263.0, 1263.0, 1264.0, 1267.0, 1268.0, 1268.0, 1268.0, 1268.0, 1268.0, 1264.0, 1265.0, 1263.0, 1263.0, 1263.0, 1264.0, 1265.0, 1264.0, 1266.0, 1266.0, 1267.0, 1267.0, 1265.0, 1266.0, 1265.0, 1264.0, 1267.0, 1266.0, 1268.0, 1267.0, 1265.0, 1263.0, 1262.0, 1261.0, 1260.0, 1261.0, 1261.0, 1264.0, 1265.0, 1266.0, 1266.0, 1262.0, 1261.0, 1259.0, 1263.0, 1264.0, 1264.0, 1265.0, 1268.0, 1268.0, 1267.0, 1267.0, 1267.0, 1264.0, 1266.0, 1265.0, 1265.0, 1264.0, 1265.0, 1268.0, 1267.0, 1267.0, 1268.0, 1267.0, 1264.0, 1264.0, 1266.0, 1265.0, 1263.0, 1263.0, 1263.0, 1264.0, 1262.0, 1262.0, 1262.0, 1262.0, 1263.0, 1266.0, 1267.0, 1268.0, 1267.0, 1268.0, 1266.0, 1263.0, 1262.0, 1263.0, 1264.0, 1264.0, 1265.0, 1265.0, 1263.0, 1260.0, 1262.0, 1265.0, 1265.0, 1264.0, 1264.0, 1265.0, 1265.0, 1263.0, 1262.0, 1265.0, 1264.0, 1265.0, 1265.0, 1266.0, 1265.0, 1263.0, 1264.0, 1264.0, 1264.0, 1265.0, 1266.0, 1264.0, 1263.0, 1262.0, 1264.0, 1262.0, 1261.0, 1261.0, 1263.0, 1266.0, 1266.0, 1265.0]
    },
    "slices": {}
  }
}