{
  "AcquisitionMatrixPE": 108,
  "AcquisitionNumber": 1,
  "AcquisitionTime": "16:13:42.927500",
  "BandwidthPerPixelPhaseEncode": 15.964,
  "BaseResolution": 108,
  "BodyPartExamined": "BRAIN",
  "ConsistencyInfo": "N4_VE11C_LATEST_20160120",
  "ConversionSoftware": "dcm2niix",
  "ConversionSoftwareVersion": "v1.0.20180622 GCC6.3.0",
  "DerivedVendorReportedEchoSpacing": 0.000580009,
  "DeviceSerialNumber": "66054",
  "DwellTime": 2.1e-06,
  "EchoTime": 0.031,
  "EchoTrainLength": 95,
  "EffectiveEchoSpacing": 0.000580009,
  "FlipAngle": 64,
  "ImageOrientationPatientDICOM": [0.999361, 0.0267022, 0.0237655, -0.0174439, 0.944591, -0.327785],
  "ImageType": [
    "ORIGINAL",
    "PRIMARY",
    "M",
    "ND",
    "MOSAIC"
],
  "InPlanePhaseEncodingDirectionDICOM": "COL",
  "InstitutionAddress": "Chemin_des_Mines_9_Geneve_District_CH_1211",
  "InstitutionName": "Fondation_Campus_Biotech_Geneva",
  "InstitutionalDepartmentName": "Department",
  "MRAcquisitionType": "2D",
  "MagneticFieldStrength": 3,
  "Manufacturer": "Siemens",
  "ManufacturersModelName": "Prisma",
  "Modality": "MR",
  "MultibandAccelerationFactor": 4,
  "PartialFourier": 0.875,
  "PatientPosition": "HFS",
  "PercentPhaseFOV": 100,
  "PhaseEncodingDirection": "j-",
  "PhaseEncodingSteps": 95,
  "PhaseResolution": 1,
  "PixelBandwidth": 2205,
  "ProcedureStepDescription": "J.DRM_Michael",
  "ProtocolName": "Run5_bold_s4_TR1.28",
  "PulseSequenceDetails": "%SiemensSeq%_ep2d_bold",
  "ReceiveCoilActiveElements": "HC1-7;NC1,2",
  "ReceiveCoilName": "HeadNeck_64",
  "ReconMatrixPE": 108,
  "RepetitionTime": 1.28,
  "SAR": 0.0720934,
  "ScanOptions": "PFP_FS",
  "ScanningSequence": "EP",
  "SequenceName": "_epfid2d1_108",
  "SequenceVariant": "SK",
  "SeriesDescription": "Run5_bold_s4_TR1.28",
  "SeriesNumber": 11,
  "ShimSetting": [-1248, -11673, 6469, 587, 155, -191, -60, 5],
  "SliceThickness": 2,
  "SliceTiming": [0.945, 0, 0.63, 0.0775, 0.7075, 0.1575, 0.7875, 0.235, 0.865, 0.3925, 1.0225, 0.4725, 1.1025, 0.55, 1.18, 0.315, 0.945, 0, 0.63, 0.0775, 0.7075, 0.1575, 0.7875, 0.235, 0.865, 0.3925, 1.0225, 0.4725, 1.1025, 0.55, 1.18, 0.315, 0.945, 0, 0.63, 0.0775, 0.7075, 0.1575, 0.7875, 0.235, 0.865, 0.3925, 1.0225, 0.4725, 1.1025, 0.55, 1.18, 0.315, 0.945, 0, 0.63, 0.0775, 0.7075, 0.1575, 0.7875, 0.235, 0.865, 0.3925, 1.0225, 0.4725, 1.1025, 0.55, 1.18, 0.315],
  "SoftwareVersions": "syngo_MR_E11",
  "SpacingBetweenSlices": 2,
  "StationName": "AWP66054",
  "TaskName": "main",
  "TotalReadoutTime": 0.0620609,
  "TxRefAmp": 249.558,
  "dcmmeta_affine": [
    [-1.9894684553146362, -0.034726254642009735, 0.06240252032876015, 110.330810546875],
    [-0.05315724015235901, 1.8804364204406738, -0.6543217897415161, -60.17472457885742],
    [0.04731091111898422, 0.6525348424911499, 1.8889068365097046, -84.4303207397461],
    [0.0, 0.0, 0.0, 1.0]
],
  "dcmmeta_reorient_transform": [
    [0.0, -1.0, 0.0, 107.0],
    [1.0, 0.0, 0.0, 0.0],
    [0.0, 0.0, 1.0, 0.0],
    [0.0, 0.0, 0.0, 1.0]
],
  "dcmmeta_shape": [108, 108, 64, 375],
  "dcmmeta_slice_dim": 2,
  "dcmmeta_version": 0.6,
  "global": {
    "const": {
      "AccessionNumber": "",
      "AcquisitionMatrix": [108, 0, 0, 108],
      "AngioFlag": "N",
      "BitsAllocated": 16,
      "BitsStored": 12,
      "BodyPartExamined": "BRAIN",
      "Columns": 864,
      "EchoNumbers": 1,
      "EchoTime": 31.0,
      "EchoTrainLength": 95,
      "FlipAngle": 64.0,
      "HighBit": 11,
      "ImageOrientationPatient": [0.99936089190462, 0.02670224057923, 0.02376548084182, -0.0174438862009, 0.94459131012589, -0.3277849411868],
      "ImagePositionPatient": [-845.5076601689, -871.93038453435, 214.16555324932],
      "ImageType": [
        "ORIGINAL",
        "PRIMARY",
        "M",
        "ND",
        "MOSAIC"
],
      "ImagedNucleus": "1H",
      "ImagingFrequency": 123.257412,
      "InPlanePhaseEncodingDirection": "COL",
      "MRAcquisitionType": "2D",
      "MagneticFieldStrength": 3.0,
      "Manufacturer": "SIEMENS",
      "ManufacturerModelName": "Prisma",
      "Modality": "MR",
      "NumberOfAverages": 1.0,
      "NumberOfPhaseEncodingSteps": 95,
      "PercentPhaseFieldOfView": 100.0,
      "PercentSampling": 100.0,
      "PerformedProcedureStepStartTime": "151514.126000",
      "PhotometricInterpretation": "MONOCHROME2",
      "PixelBandwidth": 2205.0,
      "PixelRepresentation": 0,
      "PixelSpacing": [1.990740776062, 1.990740776062],
      "PositionReferenceIndicator": "",
      "ProtocolName": "Run5_bold_s4_TR1.28",
      "RepetitionTime": 1280.0,
      "Rows": 864,
      "SAR": 0.07209344242669,
      "SamplesPerPixel": 1,
      "ScanOptions": [
        "PFP",
        "FS"
],
      "ScanningSequence": "EP",
      "SequenceName": "*epfid2d1_108",
      "SequenceVariant": "SK",
      "SeriesDescription": "Run5_bold_s4_TR1.28",
      "SeriesNumber": 11,
      "SeriesTime": "161419.206000",
      "SliceLocation": -56.611230074761,
      "SliceThickness": 2.0,
      "SmallestImagePixelValue": 0,
      "SoftwareVersions": "syngo MR E11",
      "SpacingBetweenSlices": 2.0000000558295,
      "SpecificCharacterSet": "ISO_IR 100",
      "StudyID": "1",
      "StudyTime": "151514.060000",
      "TransmitCoilName": "Body",
      "VariableFlipAngleFlag": "N",
      "WindowCenterWidthExplanation": "Algo1",
      "dBdt": 0.0},
    "slices": {}
  },
  "time": {
    "samples": {
      "AcquisitionNumber": [1, 2, 3, 4, 5, 6, 7, 8, 9, 10, 11, 12, 13, 14, 15, 16, 17, 18, 19, 20, 21, 22, 23, 24, 25, 26, 27, 28, 29, 30, 31, 32, 33, 34, 35, 36, 37, 38, 39, 40, 41, 42, 43, 44, 45, 46, 47, 48, 49, 50, 51, 52, 53, 54, 55, 56, 57, 58, 59, 60, 61, 62, 63, 64, 65, 66, 67, 68, 69, 70, 71, 72, 73, 74, 75, 76, 77, 78, 79, 80, 81, 82, 83, 84, 85, 86, 87, 88, 89, 90, 91, 92, 93, 94, 95, 96, 97, 98, 99, 100, 101, 102, 103, 104, 105, 106, 107, 108, 109, 110, 111, 112, 113, 114, 115, 116, 117, 118, 119, 120, 121, 122, 123, 124, 125, 126, 127, 128, 129, 130, 131, 132, 133, 134, 135, 136, 137, 138, 139, 140, 141, 142, 143, 144, 145, 146, 147, 148, 149, 150, 151, 152, 153, 154, 155, 156, 157, 158, 159, 160, 161, 162, 163, 164, 165, 166, 167, 168, 169, 170, 171, 172, 173, 174, 175, 176, 177, 178, 179, 180, 181, 182, 183, 184, 185, 186, 187, 188, 189, 190, 191, 192, 193, 194, 195, 196, 197, 198, 199, 200, 201, 202, 203, 204, 205, 206, 207, 208, 209, 210, 211, 212, 213, 214, 215, 216, 217, 218, 219, 220, 221, 222, 223, 224, 225, 226, 227, 228, 229, 230, 231, 232, 233, 234, 235, 236, 237, 238, 239, 240, 241, 242, 243, 244, 245, 246, 247, 248, 249, 250, 251, 252, 253, 254, 255, 256, 257, 258, 259, 260, 261, 262, 263, 264, 265, 266, 267, 268, 269, 270, 271, 272, 273, 274, 275, 276, 277, 278, 279, 280, 281, 282, 283, 284, 285, 286, 287, 288, 289, 290, 291, 292, 293, 294, 295, 296, 297, 298, 299, 300, 301, 302, 303, 304, 305, 306, 307, 308, 309, 310, 311, 312, 313, 314, 315, 316, 317, 318, 319, 320, 321, 322, 323, 324, 325, 326, 327, 328, 329, 330, 331, 332, 333, 334, 335, 336, 337, 338, 339, 340, 341, 342, 343, 344, 345, 346, 347, 348, 349, 350, 351, 352, 353, 354, 355, 356, 357, 358, 359, 360, 361, 362, 363, 364, 365, 366, 367, 368, 369, 370, 371, 372, 373, 374, 375],
      "AcquisitionTime": ["161342.927500", "161344.207500", "161345.487500", "161346.767500", "161348.047500", "161349.327500", "161350.607500", "161351.887500", "161353.167500", "161354.447500", "161355.727500", "161357.007500", "161358.287500", "161359.567500", "161400.847500", "161402.127500", "161403.407500", "161404.687500", "161405.967500", "161407.247500", "161408.527500", "161409.807500", "161411.087500", "161412.367500", "161413.647500", "161414.927500", "161416.207500", "161417.487500", "161418.767500", "161420.047500", "161421.327500", "161422.607500", "161423.887500", "161425.167500", "161426.447500", "161427.727500", "161429.007500", "161430.287500", "161431.567500", "161432.847500", "161434.127500", "161435.407500", "161436.687500", "161437.967500", "161439.247500", "161440.527500", "161441.807500", "161443.087500", "161444.367500", "161445.647500", "161446.927500", "161448.207500", "161449.487500", "161450.767500", "161452.047500", "161453.327500", "161454.607500", "161455.887500", "161457.167500", "161458.447500", "161459.727500", "161501.007500", "161502.287500", "161503.567500", "161504.847500", "161506.127500", "161507.407500", "161508.687500", "161509.967500", "161511.247500", "161512.527500", "161513.807500", "161515.087500", "161516.367500", "161517.647500", "161518.927500", "161520.207500", "161521.487500", "161522.767500", "161524.047500", "161525.327500", "161526.607500", "161527.887500", "161529.167500", "161530.447500", "161531.727500", "161533.007500", "161534.287500", "161535.567500", "161536.847500", "161538.127500", "161539.407500", "161540.687500", "161541.967500", "161543.247500", "161544.527500", "161545.807500", "161547.087500", "161548.367500", "161549.647500", "161550.927500", "161552.207500", "161553.487500", "161554.767500", "161556.047500", "161557.327500", "161558.607500", "161559.887500", "161601.167500", "161602.447500", "161603.727500", "161605.007500", "161606.287500", "161607.567500", "161608.847500", "161610.127500", "161611.407500", "161612.687500", "161613.967500", "161615.247500", "161616.527500", "161617.807500", "161619.087500", "161620.367500", "161621.647500", "161622.927500", "161624.207500", "161625.487500", "161626.767500", "161628.047500", "161629.327500", "161630.607500", "161631.887500", "161633.167500", "161634.447500", "161635.727500", "161637.007500", "161638.287500", "161639.567500", "161640.847500", "161642.127500", "161643.407500", "161644.687500", "161645.967500", "161647.247500", "161648.527500", "161649.807500", "161651.087500", "161652.367500", "161653.647500", "161654.927500", "161656.207500", "161657.487500", "161658.767500", "161700.047500", "161701.327500", "161702.607500", "161703.887500", "161705.167500", "161706.447500", "161707.727500", "161709.007500", "161710.287500", "161711.567500", "161712.847500", "161714.127500", "161715.407500", "161716.687500", "161717.967500", "161719.247500", "161720.527500", "161721.807500", "161723.087500", "161724.367500", "161725.647500", "161726.927500", "161728.207500", "161729.487500", "161730.767500", "161732.047500", "161733.327500", "161734.607500", "161735.887500", "161737.167500", "161738.447500", "161739.727500", "161741.007500", "161742.287500", "161743.567500", "161744.847500", "161746.127500", "161747.407500", "161748.687500", "161749.967500", "161751.247500", "161752.527500", "161753.807500", "161755.087500", "161756.367500", "161757.647500", "161758.927500", "161800.207500", "161801.487500", "161802.767500", "161804.047500", "161805.327500", "161806.607500", "161807.887500", "161809.167500", "161810.447500", "161811.727500", "161813.007500", "161814.287500", "161815.567500", "161816.847500", "161818.127500", "161819.407500", "161820.687500", "161821.967500", "161823.247500", "161824.527500", "161825.807500", "161827.087500", "161828.367500", "161829.647500", "161830.927500", "161832.207500", "161833.487500", "161834.767500", "161836.047500", "161837.327500", "161838.607500", "161839.887500", "161841.167500", "161842.447500", "161843.727500", "161845.007500", "161846.287500", "161847.567500", "161848.847500", "161850.127500", "161851.407500", "161852.687500", "161853.967500", "161855.247500", "161856.527500", "161857.807500", "161859.087500", "161900.367500", "161901.647500", "161902.927500", "161904.207500", "161905.487500", "161906.767500", "161908.047500", "161909.327500", "161910.607500", "161911.887500", "161913.167500", "161914.447500", "161915.727500", "161917.007500", "161918.287500", "161919.567500", "161920.847500", "161922.127500", "161923.407500", "161924.687500", "161925.967500", "161927.247500", "161928.527500", "161929.807500", "161931.087500", "161932.367500", "161933.647500", "161934.927500", "161936.207500", "161937.487500", "161938.767500", "161940.047500", "161941.327500", "161942.607500", "161943.887500", "161945.167500", "161946.447500", "161947.727500", "161949.007500", "161950.287500", "161951.567500", "161952.847500", "161954.127500", "161955.407500", "161956.687500", "161957.967500", "161959.247500", "162000.527500", "162001.807500", "162003.087500", "162004.367500", "162005.647500", "162006.927500", "162008.207500", "162009.487500", "162010.767500", "162012.047500", "162013.327500", "162014.607500", "162015.887500", "162017.167500", "162018.447500", "162019.727500", "162021.007500", "162022.287500", "162023.567500", "162024.847500", "162026.127500", "162027.407500", "162028.687500", "162029.967500", "162031.247500", "162032.527500", "162033.807500", "162035.087500", "162036.367500", "162037.647500", "162038.927500", "162040.207500", "162041.487500", "162042.767500", "162044.047500", "162045.327500", "162046.607500", "162047.887500", "162049.167500", "162050.447500", "162051.727500", "162053.007500", "162054.287500", "162055.567500", "162056.847500", "162058.127500", "162059.407500", "162100.687500", "162101.967500", "162103.247500", "162104.527500", "162105.807500", "162107.087500", "162108.367500", "162109.647500", "162110.927500", "162112.207500", "162113.487500", "162114.767500", "162116.047500", "162117.327500", "162118.607500", "162119.887500", "162121.167500", "162122.447500", "162123.727500", "162125.007500", "162126.287500", "162127.567500", "162128.847500", "162130.127500", "162131.407500", "162132.687500", "162133.967500", "162135.247500", "162136.527500", "162137.807500", "162139.087500", "162140.367500", "162141.647500"],
      "ContentTime": ["161419.210000", "161419.220000", "161419.223000", "161419.226000", "161419.229000", "161419.232000", "161419.235000", "161419.238000", "161419.242000", "161419.245000", "161419.248000", "161419.251000", "161419.263000", "161419.266000", "161419.269000", "161419.272000", "161419.275000", "161419.278000", "161419.281000", "161419.284000", "161419.287000", "161419.290000", "161419.293000", "161419.296000", "161419.299000", "161419.302000", "161419.305000", "161419.308000", "161459.205000", "161459.208000", "161459.211000", "161459.214000", "161459.217000", "161459.224000", "161459.227000", "161459.230000", "161459.233000", "161459.236000", "161459.239000", "161459.242000", "161459.245000", "161459.248000", "161459.251000", "161459.254000", "161459.257000", "161459.260000", "161459.263000", "161459.265000", "161459.269000", "161459.272000", "161459.274000", "161459.277000", "161459.281000", "161459.283000", "161459.286000", "161459.289000", "161459.292000", "161459.295000", "161459.298000", "161539.204000", "161539.207000", "161539.210000", "161539.213000", "161539.216000", "161539.219000", "161539.222000", "161539.225000", "161539.228000", "161539.231000", "161539.234000", "161539.237000", "161539.240000", "161539.243000", "161539.246000", "161539.249000", "161539.252000", "161539.255000", "161539.258000", "161539.261000", "161539.264000", "161539.267000", "161539.270000", "161539.273000", "161539.276000", "161539.279000", "161539.282000", "161539.287000", "161539.290000", "161539.293000", "161539.296000", "161539.299000", "161619.204000", "161619.207000", "161619.210000", "161619.213000", "161619.216000", "161619.219000", "161619.222000", "161619.225000", "161619.228000", "161619.236000", "161619.238000", "161619.242000", "161619.245000", "161619.248000", "161619.251000", "161619.254000", "161619.257000", "161619.260000", "161619.263000", "161619.266000", "161619.269000", "161619.272000", "161619.275000", "161619.278000", "161619.281000", "161619.284000", "161619.287000", "161619.290000", "161619.293000", "161619.295000", "161619.298000", "161639.205000", "161639.208000", "161639.211000", "161639.214000", "161639.217000", "161639.220000", "161639.223000", "161639.226000", "161639.229000", "161639.241000", "161639.245000", "161639.248000", "161639.251000", "161639.254000", "161639.257000", "161719.205000", "161719.208000", "161719.211000", "161719.214000", "161719.217000", "161719.220000", "161719.223000", "161719.226000", "161719.229000", "161719.232000", "161719.235000", "161719.238000", "161719.241000", "161719.244000", "161719.247000", "161719.250000", "161719.253000", "161719.256000", "161719.259000", "161719.262000", "161719.265000", "161719.268000", "161719.271000", "161719.274000", "161719.277000", "161719.280000", "161719.283000", "161719.286000", "161719.289000", "161719.309000", "161719.312000", "161719.315000", "161759.204000", "161759.207000", "161759.210000", "161759.213000", "161759.216000", "161759.219000", "161759.222000", "161759.225000", "161759.228000", "161759.231000", "161759.234000", "161759.237000", "161759.240000", "161759.243000", "161759.246000", "161759.249000", "161759.252000", "161759.255000", "161759.258000", "161759.261000", "161759.264000", "161759.267000", "161759.270000", "161759.273000", "161759.276000", "161759.279000", "161759.282000", "161759.285000", "161759.288000", "161759.291000", "161759.294000", "161839.204000", "161839.207000", "161839.210000", "161839.213000", "161839.216000", "161839.219000", "161839.222000", "161839.225000", "161839.228000", "161839.231000", "161839.234000", "161839.237000", "161839.240000", "161839.243000", "161839.246000", "161839.249000", "161839.252000", "161839.255000", "161839.258000", "161839.261000", "161839.264000", "161839.267000", "161839.270000", "161839.273000", "161839.276000", "161839.279000", "161839.285000", "161839.288000", "161839.291000", "161839.294000", "161839.297000", "161919.205000", "161919.208000", "161919.211000", "161919.214000", "161919.217000", "161919.220000", "161919.223000", "161919.226000", "161919.229000", "161919.232000", "161919.235000", "161919.238000", "161919.241000", "161919.244000", "161919.247000", "161919.250000", "161919.253000", "161919.256000", "161919.259000", "161919.262000", "161919.265000", "161919.268000", "161919.271000", "161919.274000", "161919.277000", "161919.280000", "161919.283000", "161919.286000", "161919.289000", "161919.292000", "161919.295000", "161959.205000", "161959.208000", "161959.211000", "161959.214000", "161959.217000", "161959.220000", "161959.223000", "161959.226000", "161959.229000", "161959.232000", "161959.235000", "161959.238000", "161959.241000", "161959.244000", "161959.247000", "161959.250000", "161959.253000", "161959.256000", "161959.259000", "161959.262000", "161959.265000", "161959.268000", "161959.271000", "161959.274000", "161959.277000", "161959.280000", "161959.283000", "161959.286000", "161959.289000", "161959.292000", "161959.295000", "161959.298000", "162039.204000", "162039.207000", "162039.210000", "162039.213000", "162039.216000", "162039.219000", "162039.222000", "162039.225000", "162039.228000", "162039.231000", "162039.234000", "162039.237000", "162039.240000", "162039.243000", "162039.246000", "162039.249000", "162039.252000", "162039.255000", "162039.258000", "162039.261000", "162039.264000", "162039.267000", "162039.270000", "162039.273000", "162039.276000", "162039.279000", "162039.282000", "162039.285000", "162039.288000", "162039.291000", "162039.294000", "162119.205000", "162119.208000", "162119.211000", "162119.214000", "162119.217000", "162119.220000", "162119.223000", "162119.226000", "162119.229000", "162119.232000", "162119.235000", "162119.239000", "162119.249000", "162119.253000", "162119.256000", "162119.258000", "162119.261000", "162119.265000", "162119.268000", "162119.270000", "162119.273000", "162119.277000", "162119.279000", "162119.282000", "162119.285000", "162119.288000", "162119.291000", "162119.294000", "162119.297000", "162119.300000", "162119.303000", "162142.605000", "162142.610000", "162142.613000", "162142.616000", "162142.619000", "162142.622000", "162142.626000", "162142.628000", "162142.632000", "162142.635000", "162142.638000", "162142.641000", "162142.644000", "162142.647000", "162142.654000", "162142.658000", "162142.661000", "162142.664000", "162142.667000"],
      "InstanceCreationTime": ["161419.210000", "161419.220000", "161419.223000", "161419.226000", "161419.229000", "161419.232000", "161419.235000", "161419.238000", "161419.242000", "161419.245000", "161419.248000", "161419.251000", "161419.263000", "161419.266000", "161419.269000", "161419.272000", "161419.275000", "161419.278000", "161419.281000", "161419.284000", "161419.287000", "161419.290000", "161419.293000", "161419.296000", "161419.299000", "161419.302000", "161419.305000", "161419.308000", "161459.205000", "161459.208000", "161459.211000", "161459.214000", "161459.217000", "161459.224000", "161459.227000", "161459.230000", "161459.233000", "161459.236000", "161459.239000", "161459.242000", "161459.245000", "161459.248000", "161459.251000", "161459.254000", "161459.257000", "161459.260000", "161459.263000", "161459.265000", "161459.269000", "161459.272000", "161459.274000", "161459.277000", "161459.281000", "161459.283000", "161459.286000", "161459.289000", "161459.292000", "161459.295000", "161459.298000", "161539.204000", "161539.207000", "161539.210000", "161539.213000", "161539.216000", "161539.219000", "161539.222000", "161539.225000", "161539.228000", "161539.231000", "161539.234000", "161539.237000", "161539.240000", "161539.243000", "161539.246000", "161539.249000", "161539.252000", "161539.255000", "161539.258000", "161539.261000", "161539.264000", "161539.267000", "161539.270000", "161539.273000", "161539.276000", "161539.279000", "161539.282000", "161539.287000", "161539.290000", "161539.293000", "161539.296000", "161539.299000", "161619.204000", "161619.207000", "161619.210000", "161619.213000", "161619.216000", "161619.219000", "161619.222000", "161619.225000", "161619.228000", "161619.236000", "161619.238000", "161619.242000", "161619.245000", "161619.248000", "161619.251000", "161619.254000", "161619.257000", "161619.260000", "161619.263000", "161619.266000", "161619.269000", "161619.272000", "161619.275000", "161619.278000", "161619.281000", "161619.284000", "161619.287000", "161619.290000", "161619.293000", "161619.295000", "161619.298000", "161639.205000", "161639.208000", "161639.211000", "161639.214000", "161639.217000", "161639.220000", "161639.223000", "161639.226000", "161639.229000", "161639.241000", "161639.245000", "161639.248000", "161639.251000", "161639.254000", "161639.257000", "161719.205000", "161719.208000", "161719.211000", "161719.214000", "161719.217000", "161719.220000", "161719.223000", "161719.226000", "161719.229000", "161719.232000", "161719.235000", "161719.238000", "161719.241000", "161719.244000", "161719.247000", "161719.250000", "161719.253000", "161719.256000", "161719.259000", "161719.262000", "161719.265000", "161719.268000", "161719.271000", "161719.274000", "161719.277000", "161719.280000", "161719.283000", "161719.286000", "161719.289000", "161719.309000", "161719.312000", "161719.315000", "161759.204000", "161759.207000", "161759.210000", "161759.213000", "161759.216000", "161759.219000", "161759.222000", "161759.225000", "161759.228000", "161759.231000", "161759.234000", "161759.237000", "161759.240000", "161759.243000", "161759.246000", "161759.249000", "161759.252000", "161759.255000", "161759.258000", "161759.261000", "161759.264000", "161759.267000", "161759.270000", "161759.273000", "161759.276000", "161759.279000", "161759.282000", "161759.285000", "161759.288000", "161759.291000", "161759.294000", "161839.204000", "161839.207000", "161839.210000", "161839.213000", "161839.216000", "161839.219000", "161839.222000", "161839.225000", "161839.228000", "161839.231000", "161839.234000", "161839.237000", "161839.240000", "161839.243000", "161839.246000", "161839.249000", "161839.252000", "161839.255000", "161839.258000", "161839.261000", "161839.264000", "161839.267000", "161839.270000", "161839.273000", "161839.276000", "161839.279000", "161839.285000", "161839.288000", "161839.291000", "161839.294000", "161839.297000", "161919.205000", "161919.208000", "161919.211000", "161919.214000", "161919.217000", "161919.220000", "161919.223000", "161919.226000", "161919.229000", "161919.232000", "161919.235000", "161919.238000", "161919.241000", "161919.244000", "161919.247000", "161919.250000", "161919.253000", "161919.256000", "161919.259000", "161919.262000", "161919.265000", "161919.268000", "161919.271000", "161919.274000", "161919.277000", "161919.280000", "161919.283000", "161919.286000", "161919.289000", "161919.292000", "161919.295000", "161959.205000", "161959.208000", "161959.211000", "161959.214000", "161959.217000", "161959.220000", "161959.223000", "161959.226000", "161959.229000", "161959.232000", "161959.235000", "161959.238000", "161959.241000", "161959.244000", "161959.247000", "161959.250000", "161959.253000", "161959.256000", "161959.259000", "161959.262000", "161959.265000", "161959.268000", "161959.271000", "161959.274000", "161959.277000", "161959.280000", "161959.283000", "161959.286000", "161959.289000", "161959.292000", "161959.295000", "161959.298000", "162039.204000", "162039.207000", "162039.210000", "162039.213000", "162039.216000", "162039.219000", "162039.222000", "162039.225000", "162039.228000", "162039.231000", "162039.234000", "162039.237000", "162039.240000", "162039.243000", "162039.246000", "162039.249000", "162039.252000", "162039.255000", "162039.258000", "162039.261000", "162039.264000", "162039.267000", "162039.270000", "162039.273000", "162039.276000", "162039.279000", "162039.282000", "162039.285000", "162039.288000", "162039.291000", "162039.294000", "162119.205000", "162119.208000", "162119.211000", "162119.214000", "162119.217000", "162119.220000", "162119.223000", "162119.226000", "162119.229000", "162119.232000", "162119.235000", "162119.239000", "162119.249000", "162119.253000", "162119.256000", "162119.258000", "162119.261000", "162119.265000", "162119.268000", "162119.270000", "162119.273000", "162119.277000", "162119.279000", "162119.282000", "162119.285000", "162119.288000", "162119.291000", "162119.294000", "162119.297000", "162119.300000", "162119.303000", "162142.605000", "162142.610000", "162142.613000", "162142.616000", "162142.619000", "162142.622000", "162142.626000", "162142.628000", "162142.632000", "162142.635000", "162142.638000", "162142.641000", "162142.644000", "162142.647000", "162142.654000", "162142.658000", "162142.661000", "162142.664000", "162142.667000"],
      "InstanceNumber": [1, 2, 3, 4, 5, 6, 7, 8, 9, 10, 11, 12, 13, 14, 15, 16, 17, 18, 19, 20, 21, 22, 23, 24, 25, 26, 27, 28, 29, 30, 31, 32, 33, 34, 35, 36, 37, 38, 39, 40, 41, 42, 43, 44, 45, 46, 47, 48, 49, 50, 51, 52, 53, 54, 55, 56, 57, 58, 59, 60, 61, 62, 63, 64, 65, 66, 67, 68, 69, 70, 71, 72, 73, 74, 75, 76, 77, 78, 79, 80, 81, 82, 83, 84, 85, 86, 87, 88, 89, 90, 91, 92, 93, 94, 95, 96, 97, 98, 99, 100, 101, 102, 103, 104, 105, 106, 107, 108, 109, 110, 111, 112, 113, 114, 115, 116, 117, 118, 119, 120, 121, 122, 123, 124, 125, 126, 127, 128, 129, 130, 131, 132, 133, 134, 135, 136, 137, 138, 139, 140, 141, 142, 143, 144, 145, 146, 147, 148, 149, 150, 151, 152, 153, 154, 155, 156, 157, 158, 159, 160, 161, 162, 163, 164, 165, 166, 167, 168, 169, 170, 171, 172, 173, 174, 175, 176, 177, 178, 179, 180, 181, 182, 183, 184, 185, 186, 187, 188, 189, 190, 191, 192, 193, 194, 195, 196, 197, 198, 199, 200, 201, 202, 203, 204, 205, 206, 207, 208, 209, 210, 211, 212, 213, 214, 215, 216, 217, 218, 219, 220, 221, 222, 223, 224, 225, 226, 227, 228, 229, 230, 231, 232, 233, 234, 235, 236, 237, 238, 239, 240, 241, 242, 243, 244, 245, 246, 247, 248, 249, 250, 251, 252, 253, 254, 255, 256, 257, 258, 259, 260, 261, 262, 263, 264, 265, 266, 267, 268, 269, 270, 271, 272, 273, 274, 275, 276, 277, 278, 279, 280, 281, 282, 283, 284, 285, 286, 287, 288, 289, 290, 291, 292, 293, 294, 295, 296, 297, 298, 299, 300, 301, 302, 303, 304, 305, 306, 307, 308, 309, 310, 311, 312, 313, 314, 315, 316, 317, 318, 319, 320, 321, 322, 323, 324, 325, 326, 327, 328, 329, 330, 331, 332, 333, 334, 335, 336, 337, 338, 339, 340, 341, 342, 343, 344, 345, 346, 347, 348, 349, 350, 351, 352, 353, 354, 355, 356, 357, 358, 359, 360, 361, 362, 363, 364, 365, 366, 367, 368, 369, 370, 371, 372, 373, 374, 375],
