{
  "AcquisitionMatrixPE": 108,
  "AcquisitionNumber": 1,
  "AcquisitionTime": "15:46:5.302500",
  "BandwidthPerPixelPhaseEncode": 15.964,
  "BaseResolution": 108,
  "BodyPartExamined": "BRAIN",
  "ConsistencyInfo": "N4_VE11C_LATEST_20160120",
  "ConversionSoftware": "dcm2niix",
  "ConversionSoftwareVersion": "v1.0.20180622 GCC6.3.0",
  "DerivedVendorReportedEchoSpacing": 0.000580009,
  "DeviceSerialNumber": "66054",
  "DwellTime": 2.1e-06,
  "EchoTime": 0.031,
  "EchoTrainLength": 95,
  "EffectiveEchoSpacing": 0.000580009,
  "FlipAngle": 64,
  "ImageOrientationPatientDICOM": [0.999361, 0.0267022, 0.0237655, -0.0174439, 0.944591, -0.327785],
  "ImageType": [
    "ORIGINAL",
    "PRIMARY",
    "M",
    "ND",
    "MOSAIC"
],
  "InPlanePhaseEncodingDirectionDICOM": "COL",
  "InstitutionAddress": "Chemin_des_Mines_9_Geneve_District_CH_1211",
  "InstitutionName": "Fondation_Campus_Biotech_Geneva",
  "InstitutionalDepartmentName": "Department",
  "MRAcquisitionType": "2D",
  "MagneticFieldStrength": 3,
  "Manufacturer": "Siemens",
  "ManufacturersModelName": "Prisma",
  "Modality": "MR",
  "MultibandAccelerationFactor": 4,
  "PartialFourier": 0.875,
  "PatientPosition": "HFS",
  "PercentPhaseFOV": 100,
  "PhaseEncodingDirection": "j-",
  "PhaseEncodingSteps": 95,
  "PhaseResolution": 1,
  "PixelBandwidth": 2205,
  "ProcedureStepDescription": "J.DRM_Michael",
  "ProtocolName": "Run3_bold_s4_TR1.28",
  "PulseSequenceDetails": "%SiemensSeq%_ep2d_bold",
  "ReceiveCoilActiveElements": "HC1-7;NC1,2",
  "ReceiveCoilName": "HeadNeck_64",
  "ReconMatrixPE": 108,
  "RepetitionTime": 1.28,
  "SAR": 0.0720934,
  "ScanOptions": "PFP_FS",
  "ScanningSequence": "EP",
  "SequenceName": "_epfid2d1_108",
  "SequenceVariant": "SK",
  "SeriesDescription": "Run3_bold_s4_TR1.28",
  "SeriesNumber": 8,
  "ShimSetting": [-1248, -11673, 6469, 587, 155, -191, -60, 5],
  "SliceThickness": 2,
  "SliceTiming": [0.945, 0, 0.63, 0.08, 0.71, 0.1575, 0.7875, 0.2375, 0.8675, 0.395, 1.025, 0.4725, 1.1025, 0.5525, 1.1825, 0.315, 0.945, 0, 0.63, 0.08, 0.71, 0.1575, 0.7875, 0.2375, 0.8675, 0.395, 1.025, 0.4725, 1.1025, 0.5525, 1.1825, 0.315, 0.945, 0, 0.63, 0.08, 0.71, 0.1575, 0.7875, 0.2375, 0.8675, 0.395, 1.025, 0.4725, 1.1025, 0.5525, 1.1825, 0.315, 0.945, 0, 0.63, 0.08, 0.71, 0.1575, 0.7875, 0.2375, 0.8675, 0.395, 1.025, 0.4725, 1.1025, 0.5525, 1.1825, 0.315],
  "SoftwareVersions": "syngo_MR_E11",
  "SpacingBetweenSlices": 2,
  "StationName": "AWP66054",
  "TaskName": "main",
  "TotalReadoutTime": 0.0620609,
  "TxRefAmp": 249.558,
  "dcmmeta_affine": [
    [-1.9894684553146362, -0.034726254642009735, 0.06240252032876015, 110.330810546875],
    [-0.05315724015235901, 1.8804364204406738, -0.6543217897415161, -60.17472457885742],
    [0.04731091111898422, 0.6525348424911499, 1.8889068365097046, -84.4303207397461],
    [0.0, 0.0, 0.0, 1.0]
],
  "dcmmeta_reorient_transform": [
    [0.0, -1.0, 0.0, 107.0],
    [1.0, 0.0, 0.0, 0.0],
    [0.0, 0.0, 1.0, 0.0],
    [0.0, 0.0, 0.0, 1.0]
],
  "dcmmeta_shape": [108, 108, 64, 375],
  "dcmmeta_slice_dim": 2,
  "dcmmeta_version": 0.6,
  "global": {
    "const": {
      "AccessionNumber": "",
      "AcquisitionMatrix": [108, 0, 0, 108],
      "AngioFlag": "N",
      "BitsAllocated": 16,
      "BitsStored": 12,
      "BodyPartExamined": "BRAIN",
      "Columns": 864,
      "EchoNumbers": 1,
      "EchoTime": 31.0,
      "EchoTrainLength": 95,
      "FlipAngle": 64.0,
      "HighBit": 11,
      "ImageOrientationPatient": [0.99936089190462, 0.02670224057923, 0.02376548084182, -0.0174438862009, 0.94459131012589, -0.3277849411868],
      "ImagePositionPatient": [-845.5076601689, -871.93038453435, 214.16555324932],
      "ImageType": [
        "ORIGINAL",
        "PRIMARY",
        "M",
        "ND",
        "MOSAIC"
],
      "ImagedNucleus": "1H",
      "ImagingFrequency": 123.257396,
      "InPlanePhaseEncodingDirection": "COL",
      "MRAcquisitionType": "2D",
      "MagneticFieldStrength": 3.0,
      "Manufacturer": "SIEMENS",
      "ManufacturerModelName": "Prisma",
      "Modality": "MR",
      "NumberOfAverages": 1.0,
      "NumberOfPhaseEncodingSteps": 95,
      "PercentPhaseFieldOfView": 100.0,
      "PercentSampling": 100.0,
      "PerformedProcedureStepStartTime": "151514.126000",
      "PhotometricInterpretation": "MONOCHROME2",
      "PixelBandwidth": 2205.0,
      "PixelRepresentation": 0,
      "PixelSpacing": [1.990740776062, 1.990740776062],
      "PositionReferenceIndicator": "",
      "ProtocolName": "Run3_bold_s4_TR1.28",
      "RepetitionTime": 1280.0,
      "Rows": 864,
      "SAR": 0.07209344242669,
      "SamplesPerPixel": 1,
      "ScanOptions": [
        "PFP",
        "FS"
],
      "ScanningSequence": "EP",
      "SequenceName": "*epfid2d1_108",
      "SequenceVariant": "SK",
      "SeriesDescription": "Run3_bold_s4_TR1.28",
      "SeriesNumber": 8,
      "SeriesTime": "154639.206000",
      "SliceLocation": -56.611230074761,
      "SliceThickness": 2.0,
      "SmallestImagePixelValue": 0,
      "SoftwareVersions": "syngo MR E11",
      "SpacingBetweenSlices": 2.0000000558295,
      "SpecificCharacterSet": "ISO_IR 100",
      "StudyID": "1",
      "StudyTime": "151514.060000",
      "TransmitCoilName": "Body",
      "VariableFlipAngleFlag": "N",
      "WindowCenterWidthExplanation": "Algo1",
      "dBdt": 0.0},
    "slices": {}
  },
  "time": {
    "samples": {
      "AcquisitionNumber": [1, 2, 3, 4, 5, 6, 7, 8, 9, 10, 11, 12, 13, 14, 15, 16, 17, 18, 19, 20, 21, 22, 23, 24, 25, 26, 27, 28, 29, 30, 31, 32, 33, 34, 35, 36, 37, 38, 39, 40, 41, 42, 43, 44, 45, 46, 47, 48, 49, 50, 51, 52, 53, 54, 55, 56, 57, 58, 59, 60, 61, 62, 63, 64, 65, 66, 67, 68, 69, 70, 71, 72, 73, 74, 75, 76, 77, 78, 79, 80, 81, 82, 83, 84, 85, 86, 87, 88, 89, 90, 91, 92, 93, 94, 95, 96, 97, 98, 99, 100, 101, 102, 103, 104, 105, 106, 107, 108, 109, 110, 111, 112, 113, 114, 115, 116, 117, 118, 119, 120, 121, 122, 123, 124, 125, 126, 127, 128, 129, 130, 131, 132, 133, 134, 135, 136, 137, 138, 139, 140, 141, 142, 143, 144, 145, 146, 147, 148, 149, 150, 151, 152, 153, 154, 155, 156, 157, 158, 159, 160, 161, 162, 163, 164, 165, 166, 167, 168, 169, 170, 171, 172, 173, 174, 175, 176, 177, 178, 179, 180, 181, 182, 183, 184, 185, 186, 187, 188, 189, 190, 191, 192, 193, 194, 195, 196, 197, 198, 199, 200, 201, 202, 203, 204, 205, 206, 207, 208, 209, 210, 211, 212, 213, 214, 215, 216, 217, 218, 219, 220, 221, 222, 223, 224, 225, 226, 227, 228, 229, 230, 231, 232, 233, 234, 235, 236, 237, 238, 239, 240, 241, 242, 243, 244, 245, 246, 247, 248, 249, 250, 251, 252, 253, 254, 255, 256, 257, 258, 259, 260, 261, 262, 263, 264, 265, 266, 267, 268, 269, 270, 271, 272, 273, 274, 275, 276, 277, 278, 279, 280, 281, 282, 283, 284, 285, 286, 287, 288, 289, 290, 291, 292, 293, 294, 295, 296, 297, 298, 299, 300, 301, 302, 303, 304, 305, 306, 307, 308, 309, 310, 311, 312, 313, 314, 315, 316, 317, 318, 319, 320, 321, 322, 323, 324, 325, 326, 327, 328, 329, 330, 331, 332, 333, 334, 335, 336, 337, 338, 339, 340, 341, 342, 343, 344, 345, 346, 347, 348, 349, 350, 351, 352, 353, 354, 355, 356, 357, 358, 359, 360, 361, 362, 363, 364, 365, 366, 367, 368, 369, 370, 371, 372, 373, 374, 375],
      "AcquisitionTime": ["154605.302500", "154606.582500", "154607.862500", "154609.142500", "154610.422500", "154611.702500", "154612.982500", "154614.262500", "154615.542500", "154616.822500", "154618.102500", "154619.382500", "154620.662500", "154621.942500", "154623.222500", "154624.502500", "154625.782500", "154627.062500", "154628.342500", "154629.622500", "154630.902500", "154632.182500", "154633.462500", "154634.742500", "154636.022500", "154637.302500", "154638.582500", "154639.862500", "154641.142500", "154642.422500", "154643.702500", "154644.982500", "154646.262500", "154647.542500", "154648.822500", "154650.102500", "154651.382500", "154652.662500", "154653.942500", "154655.222500", "154656.502500", "154657.782500", "154659.062500", "154700.342500", "154701.622500", "154702.902500", "154704.182500", "154705.462500", "154706.742500", "154708.022500", "154709.302500", "154710.582500", "154711.862500", "154713.142500", "154714.422500", "154715.702500", "154716.982500", "154718.262500", "154719.542500", "154720.822500", "154722.102500", "154723.382500", "154724.662500", "154725.942500", "154727.222500", "154728.502500", "154729.782500", "154731.062500", "154732.342500", "154733.622500", "154734.902500", "154736.182500", "154737.462500", "154738.742500", "154740.022500", "154741.302500", "154742.582500", "154743.862500", "154745.142500", "154746.422500", "154747.702500", "154748.982500", "154750.262500", "154751.542500", "154752.822500", "154754.102500", "154755.382500", "154756.662500", "154757.942500", "154759.222500", "154800.502500", "154801.782500", "154803.062500", "154804.342500", "154805.622500", "154806.902500", "154808.182500", "154809.462500", "154810.742500", "154812.022500", "154813.302500", "154814.582500", "154815.862500", "154817.142500", "154818.422500", "154819.702500", "154820.982500", "154822.262500", "154823.542500", "154824.822500", "154826.102500", "154827.382500", "154828.662500", "154829.942500", "154831.222500", "154832.502500", "154833.782500", "154835.062500", "154836.342500", "154837.622500", "154838.902500", "154840.182500", "154841.462500", "154842.742500", "154844.022500", "154845.302500", "154846.582500", "154847.862500", "154849.142500", "154850.422500", "154851.702500", "154852.982500", "154854.262500", "154855.542500", "154856.822500", "154858.102500", "154859.382500", "154900.662500", "154901.942500", "154903.222500", "154904.502500", "154905.782500", "154907.062500", "154908.342500", "154909.622500", "154910.902500", "154912.182500", "154913.462500", "154914.742500", "154916.022500", "154917.302500", "154918.582500", "154919.862500", "154921.142500", "154922.422500", "154923.702500", "154924.982500", "154926.262500", "154927.542500", "154928.822500", "154930.102500", "154931.382500", "154932.662500", "154933.942500", "154935.222500", "154936.502500", "154937.782500", "154939.062500", "154940.342500", "154941.622500", "154942.902500", "154944.182500", "154945.462500", "154946.742500", "154948.022500", "154949.302500", "154950.582500", "154951.862500", "154953.142500", "154954.422500", "154955.702500", "154956.982500", "154958.262500", "154959.542500", "155000.822500", "155002.102500", "155003.382500", "155004.662500", "155005.942500", "155007.222500", "155008.502500", "155009.782500", "155011.062500", "155012.342500", "155013.622500", "155014.902500", "155016.182500", "155017.462500", "155018.742500", "155020.022500", "155021.302500", "155022.582500", "155023.862500", "155025.142500", "155026.422500", "155027.702500", "155028.982500", "155030.262500", "155031.542500", "155032.822500", "155034.102500", "155035.382500", "155036.662500", "155037.942500", "155039.222500", "155040.502500", "155041.782500", "155043.062500", "155044.342500", "155045.622500", "155046.902500", "155048.182500", "155049.462500", "155050.742500", "155052.022500", "155053.302500", "155054.582500", "155055.862500", "155057.142500", "155058.422500", "155059.702500", "155100.982500", "155102.262500", "155103.542500", "155104.822500", "155106.102500", "155107.382500", "155108.662500", "155109.942500", "155111.222500", "155112.502500", "155113.782500", "155115.062500", "155116.342500", "155117.622500", "155118.902500", "155120.182500", "155121.462500", "155122.742500", "155124.022500", "155125.302500", "155126.582500", "155127.862500", "155129.142500", "155130.422500", "155131.702500", "155132.982500", "155134.262500", "155135.542500", "155136.822500", "155138.102500", "155139.382500", "155140.662500", "155141.942500", "155143.222500", "155144.502500", "155145.782500", "155147.062500", "155148.342500", "155149.622500", "155150.902500", "155152.182500", "155153.462500", "155154.742500", "155156.022500", "155157.302500", "155158.582500", "155159.862500", "155201.142500", "155202.422500", "155203.702500", "155204.982500", "155206.262500", "155207.542500", "155208.822500", "155210.102500", "155211.382500", "155212.662500", "155213.942500", "155215.222500", "155216.502500", "155217.782500", "155219.062500", "155220.342500", "155221.622500", "155222.902500", "155224.182500", "155225.462500", "155226.742500", "155228.022500", "155229.302500", "155230.582500", "155231.862500", "155233.142500", "155234.422500", "155235.702500", "155236.982500", "155238.262500", "155239.542500", "155240.822500", "155242.102500", "155243.382500", "155244.662500", "155245.942500", "155247.222500", "155248.502500", "155249.782500", "155251.062500", "155252.342500", "155253.622500", "155254.902500", "155256.182500", "155257.462500", "155258.742500", "155300.022500", "155301.302500", "155302.582500", "155303.862500", "155305.142500", "155306.422500", "155307.702500", "155308.982500", "155310.262500", "155311.542500", "155312.822500", "155314.102500", "155315.382500", "155316.662500", "155317.942500", "155319.222500", "155320.502500", "155321.782500", "155323.062500", "155324.342500", "155325.622500", "155326.902500", "155328.182500", "155329.462500", "155330.742500", "155332.022500", "155333.302500", "155334.582500", "155335.862500", "155337.142500", "155338.422500", "155339.702500", "155340.982500", "155342.262500", "155343.542500", "155344.822500", "155346.102500", "155347.382500", "155348.662500", "155349.942500", "155351.222500", "155352.502500", "155353.782500", "155355.062500", "155356.342500", "155357.622500", "155358.902500", "155400.182500", "155401.462500", "155402.742500", "155404.022500"],
      "ContentTime": ["154639.210000", "154639.213000", "154639.216000", "154639.219000", "154639.222000", "154639.225000", "154639.228000", "154639.231000", "154639.234000", "154639.237000", "154639.240000", "154639.243000", "154639.246000", "154639.249000", "154639.252000", "154639.263000", "154639.274000", "154639.277000", "154639.279000", "154639.282000", "154639.285000", "154639.288000", "154639.291000", "154639.294000", "154639.297000", "154639.300000", "154719.205000", "154719.208000", "154719.211000", "154719.222000", "154719.225000", "154719.228000", "154719.231000", "154719.234000", "154719.237000", "154719.240000", "154719.243000", "154719.246000", "154719.249000", "154719.252000", "154719.255000", "154719.258000", "154719.261000", "154719.264000", "154719.267000", "154719.270000", "154719.273000", "154719.276000", "154719.279000", "154719.282000", "154719.285000", "154719.300000", "154719.303000", "154719.306000", "154719.309000", "154719.312000", "154719.315000", "154759.204000", "154759.207000", "154759.210000", "154759.213000", "154759.216000", "154759.219000", "154759.222000", "154759.225000", "154759.228000", "154759.231000", "154759.234000", "154759.237000", "154759.240000", "154759.243000", "154759.246000", "154759.249000", "154759.252000", "154759.255000", "154759.258000", "154759.261000", "154759.264000", "154759.267000", "154759.270000", "154759.273000", "154759.276000", "154759.279000", "154759.282000", "154759.285000", "154759.288000", "154759.291000", "154759.294000", "154839.204000", "154839.207000", "154839.211000", "154839.214000", "154839.219000", "154839.223000", "154839.227000", "154839.230000", "154839.232000", "154839.235000", "154839.239000", "154839.242000", "154839.245000", "154839.247000", "154839.251000", "154839.253000", "154839.256000", "154839.259000", "154839.262000", "154839.265000", "154839.268000", "154839.271000", "154839.274000", "154839.277000", "154839.280000", "154839.287000", "154839.290000", "154839.293000", "154839.296000", "154839.299000", "154839.302000", "154919.205000", "154919.208000", "154919.211000", "154919.214000", "154919.217000", "154919.220000", "154919.223000", "154919.226000", "154919.229000", "154919.232000", "154919.235000", "154919.238000", "154919.241000", "154919.245000", "154919.247000", "154919.250000", "154919.253000", "154919.256000", "154919.259000", "154919.262000", "154919.265000", "154919.269000", "154919.272000", "154919.275000", "154919.278000", "154919.281000", "154919.284000", "154919.287000", "154919.290000", "154919.293000", "154919.296000", "154919.299000", "154959.205000", "154959.208000", "154959.211000", "154959.214000", "154959.217000", "154959.220000", "154959.223000", "154959.226000", "154959.229000", "154959.232000", "154959.235000", "154959.238000", "154959.241000", "154959.244000", "154959.247000", "154959.250000", "154959.253000", "154959.257000", "154959.260000", "154959.263000", "154959.266000", "154959.268000", "154959.272000", "154959.275000", "154959.278000", "154959.281000", "154959.284000", "154959.287000", "154959.290000", "154959.293000", "154959.296000", "155039.204000", "155039.207000", "155039.210000", "155039.213000", "155039.216000", "155039.219000", "155039.222000", "155039.225000", "155039.228000", "155039.231000", "155039.234000", "155039.237000", "155039.240000", "155039.243000", "155039.247000", "155039.250000", "155039.253000", "155039.256000", "155039.259000", "155039.262000", "155039.265000", "155039.268000", "155039.271000", "155039.274000", "155039.277000", "155039.280000", "155039.283000", "155039.286000", "155039.288000", "155039.291000", "155039.294000", "155119.205000", "155119.208000", "155119.211000", "155119.214000", "155119.217000", "155119.220000", "155119.223000", "155119.226000", "155119.229000", "155119.233000", "155119.236000", "155119.238000", "155119.241000", "155119.245000", "155119.248000", "155119.251000", "155119.254000", "155119.257000", "155119.260000", "155119.263000", "155119.266000", "155119.269000", "155119.272000", "155119.278000", "155119.284000", "155119.287000", "155119.290000", "155119.293000", "155119.296000", "155119.299000", "155119.302000", "155159.205000", "155159.208000", "155159.211000", "155159.214000", "155159.217000", "155159.220000", "155159.223000", "155159.226000", "155159.229000", "155159.232000", "155159.235000", "155159.239000", "155159.242000", "155159.245000", "155159.248000", "155159.251000", "155159.254000", "155159.257000", "155159.260000", "155159.263000", "155159.266000", "155159.269000", "155159.272000", "155159.275000", "155159.278000", "155159.281000", "155159.284000", "155159.287000", "155159.295000", "155159.298000", "155159.301000", "155159.304000", "155239.204000", "155239.207000", "155239.210000", "155239.213000", "155239.216000", "155239.219000", "155239.222000", "155239.225000", "155239.228000", "155239.231000", "155239.234000", "155239.237000", "155239.240000", "155239.243000", "155239.246000", "155239.249000", "155239.253000", "155239.256000", "155239.259000", "155239.262000", "155239.265000", "155239.268000", "155239.271000", "155239.274000", "155239.277000", "155239.280000", "155239.283000", "155239.286000", "155239.289000", "155239.292000", "155239.295000", "155319.205000", "155319.208000", "155319.211000", "155319.214000", "155319.217000", "155319.220000", "155319.223000", "155319.226000", "155319.229000", "155319.232000", "155319.235000", "155319.238000", "155319.241000", "155319.244000", "155319.247000", "155319.251000", "155319.254000", "155319.257000", "155319.259000", "155319.263000", "155319.265000", "155319.268000", "155319.271000", "155319.274000", "155319.277000", "155319.280000", "155319.283000", "155319.286000", "155319.289000", "155319.292000", "155319.295000", "155359.205000", "155359.208000", "155359.211000", "155359.214000", "155359.217000", "155359.220000", "155359.223000", "155359.226000", "155359.230000", "155359.235000", "155359.241000", "155359.245000", "155359.248000", "155359.251000", "155359.254000", "155359.257000", "155359.260000", "155359.263000", "155359.266000", "155359.269000", "155359.272000", "155359.275000", "155359.278000", "155359.281000", "155359.284000", "155359.287000", "155359.290000", "155359.293000", "155359.296000", "155359.299000", "155359.302000", "155405.600000", "155405.604000", "155405.607000", "155405.610000", "155405.628000", "155405.632000"],
      "InstanceCreationTime": ["154639.210000", "154639.213000", "154639.216000", "154639.219000", "154639.222000", "154639.225000", "154639.228000", "154639.231000", "154639.234000", "154639.237000", "154639.240000", "154639.243000", "154639.246000", "154639.249000", "154639.252000", "154639.263000", "154639.274000", "154639.277000", "154639.279000", "154639.282000", "154639.285000", "154639.288000", "154639.291000", "154639.294000", "154639.297000", "154639.300000", "154719.205000", "154719.208000", "154719.211000", "154719.222000", "154719.225000", "154719.228000", "154719.231000", "154719.234000", "154719.237000", "154719.240000", "154719.243000", "154719.246000", "154719.249000", "154719.252000", "154719.255000", "154719.258000", "154719.261000", "154719.264000", "154719.267000", "154719.270000", "154719.273000", "154719.276000", "154719.279000", "154719.282000", "154719.285000", "154719.300000", "154719.303000", "154719.306000", "154719.309000", "154719.312000", "154719.315000", "154759.204000", "154759.207000", "154759.210000", "154759.213000", "154759.216000", "154759.219000", "154759.222000", "154759.225000", "154759.228000", "154759.231000", "154759.234000", "154759.237000", "154759.240000", "154759.243000", "154759.246000", "154759.249000", "154759.252000", "154759.255000", "154759.258000", "154759.261000", "154759.264000", "154759.267000", "154759.270000", "154759.273000", "154759.276000", "154759.279000", "154759.282000", "154759.285000", "154759.288000", "154759.291000", "154759.294000", "154839.204000", "154839.207000", "154839.211000", "154839.214000", "154839.219000", "154839.223000", "154839.227000", "154839.230000", "154839.232000", "154839.235000", "154839.239000", "154839.242000", "154839.245000", "154839.247000", "154839.251000", "154839.253000", "154839.256000", "154839.259000", "154839.262000", "154839.265000", "154839.268000", "154839.271000", "154839.274000", "154839.277000", "154839.280000", "154839.287000", "154839.290000", "154839.293000", "154839.296000", "154839.299000", "154839.302000", "154919.205000", "154919.208000", "154919.211000", "154919.214000", "154919.217000", "154919.220000", "154919.223000", "154919.226000", "154919.229000", "154919.232000", "154919.235000", "154919.238000", "154919.241000", "154919.245000", "154919.247000", "154919.250000", "154919.253000", "154919.256000", "154919.259000", "154919.262000", "154919.265000", "154919.269000", "154919.272000", "154919.275000", "154919.278000", "154919.281000", "154919.284000", "154919.287000", "154919.290000", "154919.293000", "154919.296000", "154919.299000", "154959.205000", "154959.208000", "154959.211000", "154959.214000", "154959.217000", "154959.220000", "154959.223000", "154959.226000", "154959.229000", "154959.232000", "154959.235000", "154959.238000", "154959.241000", "154959.244000", "154959.247000", "154959.250000", "154959.253000", "154959.257000", "154959.260000", "154959.263000", "154959.266000", "154959.268000", "154959.272000", "154959.275000", "154959.278000", "154959.281000", "154959.284000", "154959.287000", "154959.290000", "154959.293000", "154959.296000", "155039.204000", "155039.207000", "155039.210000", "155039.213000", "155039.216000", "155039.219000", "155039.222000", "155039.225000", "155039.228000", "155039.231000", "155039.234000", "155039.237000", "155039.240000", "155039.243000", "155039.247000", "155039.250000", "155039.253000", "155039.256000", "155039.259000", "155039.262000", "155039.265000", "155039.268000", "155039.271000", "155039.274000", "155039.277000", "155039.280000", "155039.283000", "155039.286000", "155039.288000", "155039.291000", "155039.294000", "155119.205000", "155119.208000", "155119.211000", "155119.214000", "155119.217000", "155119.220000", "155119.223000", "155119.226000", "155119.229000", "155119.233000", "155119.236000", "155119.238000", "155119.241000", "155119.245000", "155119.248000", "155119.251000", "155119.254000", "155119.257000", "155119.260000", "155119.263000", "155119.266000", "155119.269000", "155119.272000", "155119.278000", "155119.284000", "155119.287000", "155119.290000", "155119.293000", "155119.296000", "155119.299000", "155119.302000", "155159.205000", "155159.208000", "155159.211000", "155159.214000", "155159.217000", "155159.220000", "155159.223000", "155159.226000", "155159.229000", "155159.232000", "155159.235000", "155159.239000", "155159.242000", "155159.245000", "155159.248000", "155159.251000", "155159.254000", "155159.257000", "155159.260000", "155159.263000", "155159.266000", "155159.269000", "155159.272000", "155159.275000", "155159.278000", "155159.281000", "155159.284000", "155159.287000", "155159.295000", "155159.298000", "155159.301000", "155159.304000", "155239.204000", "155239.207000", "155239.210000", "155239.213000", "155239.216000", "155239.219000", "155239.222000", "155239.225000", "155239.228000", "155239.231000", "155239.234000", "155239.237000", "155239.240000", "155239.243000", "155239.246000", "155239.249000", "155239.253000", "155239.256000", "155239.259000", "155239.262000", "155239.265000", "155239.268000", "155239.271000", "155239.274000", "155239.277000", "155239.280000", "155239.283000", "155239.286000", "155239.289000", "155239.292000", "155239.295000", "155319.205000", "155319.208000", "155319.211000", "155319.214000", "155319.217000", "155319.220000", "155319.223000", "155319.226000", "155319.229000", "155319.232000", "155319.235000", "155319.238000", "155319.241000", "155319.244000", "155319.247000", "155319.251000", "155319.254000", "155319.257000", "155319.259000", "155319.263000", "155319.265000", "155319.268000", "155319.271000", "155319.274000", "155319.277000", "155319.280000", "155319.283000", "155319.286000", "155319.289000", "155319.292000", "155319.295000", "155359.205000", "155359.208000", "155359.211000", "155359.214000", "155359.217000", "155359.220000", "155359.223000", "155359.226000", "155359.230000", "155359.235000", "155359.241000", "155359.245000", "155359.248000", "155359.251000", "155359.254000", "155359.257000", "155359.260000", "155359.263000", "155359.266000", "155359.269000", "155359.272000", "155359.275000", "155359.278000", "155359.281000", "155359.284000", "155359.287000", "155359.290000", "155359.293000", "155359.296000", "155359.299000", "155359.302000", "155405.600000", "155405.604000", "155405.607000", "155405.610000", "155405.628000", "155405.632000"],
      "InstanceNumber": [1, 2, 3, 4, 5, 6, 7, 8, 9, 10, 11, 12, 13, 14, 15, 16, 17, 18, 19, 20, 21, 22, 23, 24, 25, 26, 27, 28, 29, 30, 31, 32, 33, 34, 35, 36, 37, 38, 39, 40, 41, 42, 43, 44, 45, 46, 47, 48, 49, 50, 51, 52, 53, 54, 55, 56, 57, 58, 59, 60, 61, 62, 63, 64, 65, 66, 67, 68, 69, 70, 71, 72, 73, 74, 75, 76, 77, 78, 79, 80, 81, 82, 83, 84, 85, 86, 87, 88, 89, 90, 91, 92, 93, 94, 95, 96, 97, 98, 99, 100, 101, 102, 103, 104, 105, 106, 107, 108, 109, 110, 111, 112, 113, 114, 115, 116, 117, 118, 119, 120, 121, 122, 123, 124, 125, 126, 127, 128, 129, 130, 131, 132, 133, 134, 135, 136, 137, 138, 139, 140, 141, 142, 143, 144, 145, 146, 147, 148, 149, 150, 151, 152, 153, 154, 155, 156, 157, 158, 159, 160, 161, 162, 163, 164, 165, 166, 167, 168, 169, 170, 171, 172, 173, 174, 175, 176, 177, 178, 179, 180, 181, 182, 183, 184, 185, 186, 187, 188, 189, 190, 191, 192, 193, 194, 195, 196, 197, 198, 199, 200, 201, 202, 203, 204, 205, 206, 207, 208, 209, 210, 211, 212, 213, 214, 215, 216, 217, 218, 219, 220, 221, 222, 223, 224, 225, 226, 227, 228, 229, 230, 231, 232, 233, 234, 235, 236, 237, 238, 239, 240, 241, 242, 243, 244, 245, 246, 247, 248, 249, 250, 251, 252, 253, 254, 255, 256, 257, 258, 259, 260, 261, 262, 263, 264, 265, 266, 267, 268, 269, 270, 271, 272, 273, 274, 275, 276, 277, 278, 279, 280, 281, 282, 283, 284, 285, 286, 287, 288, 289, 290, 291, 292, 293, 294, 295, 296, 297, 298, 299, 300, 301, 302, 303, 304, 305, 306, 307, 308, 309, 310, 311, 312, 313, 314, 315, 316, 317, 318, 319, 320, 321, 322, 323, 324, 325, 326, 327, 328, 329, 330, 331, 332, 333, 334, 335, 336, 337, 338, 339, 340, 341, 342, 343, 344, 345, 346, 347, 348, 349, 350, 351, 352, 353, 354, 355, 356, 357, 358, 359, 360, 361, 362, 363, 364, 365, 366, 367, 368, 369, 370, 371, 372, 373, 374, 375],
