{
  "AcquisitionMatrixPE": 108,
  "AcquisitionNumber": 1,
  "AcquisitionTime": "12:36:24.745000",
  "BandwidthPerPixelPhaseEncode": 15.964,
  "BaseResolution": 108,
  "BodyPartExamined": "BRAIN",
  "ConsistencyInfo": "N4_VE11C_LATEST_20160120",
  "ConversionSoftware": "dcm2niix",
  "ConversionSoftwareVersion": "v1.0.20180622 GCC6.3.0",
  "DerivedVendorReportedEchoSpacing": 0.000580009,
  "DeviceSerialNumber": "66054",
  "DwellTime": 2.1e-06,
  "EchoTime": 0.031,
  "EchoTrainLength": 95,
  "EffectiveEchoSpacing": 0.000580009,
  "FlipAngle": 64,
  "ImageOrientationPatientDICOM": [0.997162, -0.00161039, -0.0752646, -0.0330793, 0.88871, -0.457275],
  "ImageType": [
    "ORIGINAL",
    "PRIMARY",
    "M",
    "ND",
    "MOSAIC"
],
  "InPlanePhaseEncodingDirectionDICOM": "COL",
  "InstitutionAddress": "Chemin_des_Mines_9_Geneve_District_CH_1211",
  "InstitutionName": "Fondation_Campus_Biotech_Geneva",
  "InstitutionalDepartmentName": "Department",
  "MRAcquisitionType": "2D",
  "MagneticFieldStrength": 3,
  "Manufacturer": "Siemens",
  "ManufacturersModelName": "Prisma",
  "Modality": "MR",
  "MultibandAccelerationFactor": 4,
  "PartialFourier": 0.875,
  "PatientPosition": "HFS",
  "PercentPhaseFOV": 100,
  "PhaseEncodingDirection": "j-",
  "PhaseEncodingSteps": 95,
  "PhaseResolution": 1,
  "PixelBandwidth": 2205,
  "ProcedureStepDescription": "J.DRM_Michael",
  "ProtocolName": "Run4_bold_s4_TR1.28",
  "PulseSequenceDetails": "%SiemensSeq%_ep2d_bold",
  "ReceiveCoilActiveElements": "HC1-7;NC1,2",
  "ReceiveCoilName": "HeadNeck_64",
  "ReconMatrixPE": 108,
  "RepetitionTime": 1.28,
  "SAR": 0.0761486,
  "ScanOptions": "PFP_FS",
  "ScanningSequence": "EP",
  "SequenceName": "_epfid2d1_108",
  "SequenceVariant": "SK",
  "SeriesDescription": "Run4_bold_s4_TR1.28",
  "SeriesNumber": 13,
  "ShimSetting": [-1274, -11620, 6467, 462, 205, 128, -45, 51],
  "SliceThickness": 2,
  "SliceTiming": [0.945, 0, 0.63, 0.08, 0.71, 0.1575, 0.7875, 0.2375, 0.8675, 0.395, 1.025, 0.4725, 1.1025, 0.5525, 1.1825, 0.315, 0.945, 0, 0.63, 0.08, 0.71, 0.1575, 0.7875, 0.2375, 0.8675, 0.395, 1.025, 0.4725, 1.1025, 0.5525, 1.1825, 0.315, 0.945, 0, 0.63, 0.08, 0.71, 0.1575, 0.7875, 0.2375, 0.8675, 0.395, 1.025, 0.4725, 1.1025, 0.5525, 1.1825, 0.315, 0.945, 0, 0.63, 0.08, 0.71, 0.1575, 0.7875, 0.2375, 0.8675, 0.395, 1.025, 0.4725, 1.1025, 0.5525, 1.1825, 0.315],
  "SoftwareVersions": "syngo_MR_E11",
  "SpacingBetweenSlices": 2,
  "StationName": "AWP66054",
  "TaskName": "main",
  "TotalReadoutTime": 0.0620609,
  "TxRefAmp": 275.084,
  "dcmmeta_affine": [
    [-1.9850916862487793, -0.06585238128900528, -0.13524949550628662, 109.13760375976562],
    [0.003205870511010289, 1.769190788269043, -0.9169348478317261, -66.5162353515625],
    [-0.14983226358890533, 0.9103166460990906, 1.7722691297531128, -81.94861602783203],
    [0.0, 0.0, 0.0, 1.0]
],
  "dcmmeta_reorient_transform": [
    [0.0, -1.0, 0.0, 107.0],
    [1.0, 0.0, 0.0, 0.0],
    [0.0, 0.0, 1.0, 0.0],
    [0.0, 0.0, 0.0, 1.0]
],
  "dcmmeta_shape": [108, 108, 64, 373],
  "dcmmeta_slice_dim": 2,
  "dcmmeta_version": 0.6,
  "global": {
    "const": {
      "AccessionNumber": "",
      "AcquisitionMatrix": [108, 0, 0, 108],
      "AngioFlag": "N",
      "BitsAllocated": 16,
      "BitsStored": 12,
      "BodyPartExamined": "BRAIN",
      "Columns": 864,
      "EchoNumbers": 1,
      "EchoTime": 31.0,
      "EchoTrainLength": 95,
      "FlipAngle": 64.0,
      "HighBit": 11,
      "ImageOrientationPatient": [0.99716229898323, -0.001610390686, -0.0752645741921, -0.0330793335051, 0.88870974808169, -0.4572753452346],
      "ImagePositionPatient": [-827.56384068892, -790.32945114603, 416.19156844712],
      "ImageType": [
        "ORIGINAL",
        "PRIMARY",
        "M",
        "ND",
        "MOSAIC"
],
      "ImagedNucleus": "1H",
      "ImagingFrequency": 123.257375,
      "InPlanePhaseEncodingDirection": "COL",
      "MRAcquisitionType": "2D",
      "MagneticFieldStrength": 3.0,
      "Manufacturer": "SIEMENS",
      "ManufacturerModelName": "Prisma",
      "Modality": "MR",
      "NumberOfAverages": 1.0,
      "NumberOfPhaseEncodingSteps": 95,
      "PercentPhaseFieldOfView": 100.0,
      "PercentSampling": 100.0,
      "PerformedProcedureStepStartTime": "112113.180000",
      "PhotometricInterpretation": "MONOCHROME2",
      "PixelBandwidth": 2205.0,
      "PixelRepresentation": 0,
      "PixelSpacing": [1.990740776062, 1.990740776062],
      "PositionReferenceIndicator": "",
      "ProtocolName": "Run4_bold_s4_TR1.28",
      "RepetitionTime": 1280.0,
      "Rows": 864,
      "SAR": 0.07614862719262,
      "SamplesPerPixel": 1,
      "ScanOptions": [
        "PFP",
        "FS"
],
      "ScanningSequence": "EP",
      "SequenceName": "*epfid2d1_108",
      "SequenceVariant": "SK",
      "SeriesDescription": "Run4_bold_s4_TR1.28",
      "SeriesNumber": 13,
      "SeriesTime": "123651.816000",
      "SliceLocation": -49.502374793823,
      "SliceThickness": 2.0,
      "SmallestImagePixelValue": 0,
      "SoftwareVersions": "syngo MR E11",
      "SpacingBetweenSlices": 1.9999999538746,
      "SpecificCharacterSet": "ISO_IR 100",
      "StudyID": "1",
      "StudyTime": "112113.119000",
      "TransmitCoilName": "Body",
      "VariableFlipAngleFlag": "N",
      "WindowCenterWidthExplanation": "Algo1",
      "dBdt": 0.0},
    "slices": {}
  },
  "time": {
    "samples": {
      "AcquisitionNumber": [1, 2, 3, 4, 5, 6, 7, 8, 9, 10, 11, 12, 13, 14, 15, 16, 17, 18, 19, 20, 21, 22, 23, 24, 25, 26, 27, 28, 29, 30, 31, 32, 33, 34, 35, 36, 37, 38, 39, 40, 41, 42, 43, 44, 45, 46, 47, 48, 49, 50, 51, 52, 53, 54, 55, 56, 57, 58, 59, 60, 61, 62, 63, 64, 65, 66, 67, 68, 69, 70, 71, 72, 73, 74, 75, 76, 77, 78, 79, 80, 81, 82, 83, 84, 85, 86, 87, 88, 89, 90, 91, 92, 93, 94, 95, 96, 97, 98, 99, 100, 101, 102, 103, 104, 105, 106, 107, 108, 109, 110, 111, 112, 113, 114, 115, 116, 117, 118, 119, 120, 121, 122, 123, 124, 125, 126, 127, 128, 129, 130, 131, 132, 133, 134, 135, 136, 137, 138, 139, 140, 141, 142, 143, 144, 145, 146, 147, 148, 149, 150, 151, 152, 153, 154, 155, 156, 157, 158, 159, 160, 161, 162, 163, 164, 165, 166, 167, 168, 169, 170, 171, 172, 173, 174, 175, 176, 177, 178, 179, 180, 181, 182, 183, 184, 185, 186, 187, 188, 189, 190, 191, 192, 193, 194, 195, 196, 197, 198, 199, 200, 201, 202, 203, 204, 205, 206, 207, 208, 209, 210, 211, 212, 213, 214, 215, 216, 217, 218, 219, 220, 221, 222, 223, 224, 225, 226, 227, 228, 229, 230, 231, 232, 233, 234, 235, 236, 237, 238, 239, 240, 241, 242, 243, 244, 245, 246, 247, 248, 249, 250, 251, 252, 253, 254, 255, 256, 257, 258, 259, 260, 261, 262, 263, 264, 265, 266, 267, 268, 269, 270, 271, 272, 273, 274, 275, 276, 277, 278, 279, 280, 281, 282, 283, 284, 285, 286, 287, 288, 289, 290, 291, 292, 293, 294, 295, 296, 297, 298, 299, 300, 301, 302, 303, 304, 305, 306, 307, 308, 309, 310, 311, 312, 313, 314, 315, 316, 317, 318, 319, 320, 321, 322, 323, 324, 325, 326, 327, 328, 329, 330, 331, 332, 333, 334, 335, 336, 337, 338, 339, 340, 341, 342, 343, 344, 345, 346, 347, 348, 349, 350, 351, 352, 353, 354, 355, 356, 357, 358, 359, 360, 361, 362, 363, 364, 365, 366, 367, 368, 369, 370, 371, 372, 373],
      "AcquisitionTime": ["123624.745000", "123626.025000", "123627.305000", "123628.585000", "123629.865000", "123631.145000", "123632.425000", "123633.705000", "123634.985000", "123636.265000", "123637.545000", "123638.825000", "123640.105000", "123641.385000", "123642.665000", "123643.945000", "123645.225000", "123646.505000", "123647.785000", "123649.065000", "123650.345000", "123651.625000", "123652.905000", "123654.185000", "123655.465000", "123656.745000", "123658.025000", "123659.305000", "123700.585000", "123701.865000", "123703.145000", "123704.425000", "123705.705000", "123706.985000", "123708.265000", "123709.545000", "123710.825000", "123712.105000", "123713.385000", "123714.665000", "123715.945000", "123717.225000", "123718.505000", "123719.785000", "123721.065000", "123722.345000", "123723.625000", "123724.905000", "123726.185000", "123727.465000", "123728.745000", "123730.025000", "123731.305000", "123732.585000", "123733.865000", "123735.145000", "123736.425000", "123737.705000", "123738.985000", "123740.265000", "123741.545000", "123742.825000", "123744.105000", "123745.385000", "123746.665000", "123747.945000", "123749.225000", "123750.505000", "123751.785000", "123753.065000", "123754.345000", "123755.625000", "123756.905000", "123758.185000", "123759.465000", "123800.745000", "123802.025000", "123803.305000", "123804.585000", "123805.865000", "123807.145000", "123808.425000", "123809.705000", "123810.985000", "123812.265000", "123813.545000", "123814.825000", "123816.105000", "123817.385000", "123818.665000", "123819.945000", "123821.225000", "123822.505000", "123823.785000", "123825.065000", "123826.345000", "123827.625000", "123828.905000", "123830.185000", "123831.465000", "123832.745000", "123834.025000", "123835.305000", "123836.585000", "123837.865000", "123839.145000", "123840.425000", "123841.705000", "123842.985000", "123844.265000", "123845.545000", "123846.825000", "123848.105000", "123849.385000", "123850.665000", "123851.945000", "123853.225000", "123854.505000", "123855.785000", "123857.065000", "123858.345000", "123859.625000", "123900.905000", "123902.185000", "123903.465000", "123904.745000", "123906.025000", "123907.305000", "123908.585000", "123909.865000", "123911.145000", "123912.425000", "123913.705000", "123914.985000", "123916.265000", "123917.545000", "123918.825000", "123920.105000", "123921.385000", "123922.665000", "123923.945000", "123925.225000", "123926.505000", "123927.785000", "123929.065000", "123930.345000", "123931.625000", "123932.905000", "123934.185000", "123935.465000", "123936.745000", "123938.025000", "123939.305000", "123940.585000", "123941.865000", "123943.145000", "123944.425000", "123945.705000", "123946.985000", "123948.265000", "123949.545000", "123950.825000", "123952.105000", "123953.385000", "123954.665000", "123955.945000", "123957.225000", "123958.505000", "123959.785000", "124001.065000", "124002.345000", "124003.625000", "124004.905000", "124006.185000", "124007.465000", "124008.745000", "124010.025000", "124011.305000", "124012.585000", "124013.865000", "124015.145000", "124016.425000", "124017.705000", "124018.985000", "124020.265000", "124021.545000", "124022.825000", "124024.105000", "124025.385000", "124026.665000", "124027.945000", "124029.225000", "124030.505000", "124031.785000", "124033.065000", "124034.345000", "124035.625000", "124036.905000", "124038.185000", "124039.465000", "124040.745000", "124042.025000", "124043.305000", "124044.585000", "124045.865000", "124047.145000", "124048.425000", "124049.705000", "124050.985000", "124052.265000", "124053.545000", "124054.825000", "124056.105000", "124057.385000", "124058.665000", "124059.945000", "124101.225000", "124102.505000", "124103.785000", "124105.065000", "124106.345000", "124107.625000", "124108.905000", "124110.185000", "124111.465000", "124112.745000", "124114.025000", "124115.305000", "124116.585000", "124117.865000", "124119.145000", "124120.425000", "124121.705000", "124122.985000", "124124.265000", "124125.545000", "124126.825000", "124128.105000", "124129.385000", "124130.665000", "124131.945000", "124133.225000", "124134.505000", "124135.785000", "124137.065000", "124138.345000", "124139.625000", "124140.905000", "124142.185000", "124143.465000", "124144.745000", "124146.025000", "124147.305000", "124148.585000", "124149.865000", "124151.145000", "124152.425000", "124153.705000", "124154.985000", "124156.265000", "124157.545000", "124158.825000", "124200.105000", "124201.385000", "124202.665000", "124203.945000", "124205.225000", "124206.505000", "124207.785000", "124209.065000", "124210.345000", "124211.625000", "124212.905000", "124214.185000", "124215.465000", "124216.745000", "124218.025000", "124219.305000", "124220.585000", "124221.865000", "124223.145000", "124224.425000", "124225.705000", "124226.985000", "124228.265000", "124229.545000", "124230.825000", "124232.105000", "124233.385000", "124234.665000", "124235.945000", "124237.225000", "124238.505000", "124239.785000", "124241.065000", "124242.345000", "124243.625000", "124244.905000", "124246.185000", "124247.465000", "124248.745000", "124250.025000", "124251.305000", "124252.585000", "124253.865000", "124255.145000", "124256.425000", "124257.705000", "124258.985000", "124300.265000", "124301.545000", "124302.825000", "124304.105000", "124305.385000", "124306.665000", "124307.945000", "124309.225000", "124310.505000", "124311.785000", "124313.065000", "124314.345000", "124315.625000", "124316.905000", "124318.185000", "124319.465000", "124320.745000", "124322.025000", "124323.305000", "124324.585000", "124325.865000", "124327.145000", "124328.425000", "124329.705000", "124330.985000", "124332.265000", "124333.545000", "124334.825000", "124336.105000", "124337.385000", "124338.665000", "124339.945000", "124341.225000", "124342.505000", "124343.785000", "124345.065000", "124346.345000", "124347.625000", "124348.905000", "124350.185000", "124351.465000", "124352.745000", "124354.025000", "124355.305000", "124356.585000", "124357.865000", "124359.145000", "124400.425000", "124401.705000", "124402.985000", "124404.265000", "124405.545000", "124406.825000", "124408.105000", "124409.385000", "124410.665000", "124411.945000", "124413.225000", "124414.505000", "124415.785000", "124417.065000", "124418.345000", "124419.625000", "124420.905000"],
      "ContentTime": ["123651.828000", "123651.832000", "123651.835000", "123651.838000", "123651.841000", "123651.844000", "123651.847000", "123651.850000", "123651.853000", "123651.865000", "123651.868000", "123651.871000", "123651.874000", "123651.877000", "123651.880000", "123651.883000", "123651.886000", "123651.889000", "123651.892000", "123651.895000", "123731.814000", "123731.821000", "123731.824000", "123731.827000", "123731.830000", "123731.833000", "123731.836000", "123731.839000", "123731.842000", "123731.845000", "123731.848000", "123731.851000", "123731.854000", "123731.857000", "123731.860000", "123731.863000", "123731.866000", "123731.869000", "123731.872000", "123731.883000", "123731.886000", "123731.889000", "123731.892000", "123731.896000", "123731.899000", "123731.902000", "123731.905000", "123731.908000", "123731.911000", "123731.914000", "123731.917000", "123731.921000", "123811.814000", "123811.817000", "123811.820000", "123811.823000", "123811.826000", "123811.829000", "123811.832000", "123811.835000", "123811.838000", "123811.841000", "123811.844000", "123811.847000", "123811.850000", "123811.853000", "123811.856000", "123811.859000", "123811.862000", "123811.865000", "123811.868000", "123811.871000", "123811.874000", "123811.877000", "123811.881000", "123811.895000", "123811.899000", "123811.902000", "123811.905000", "123811.908000", "123811.911000", "123811.914000", "123811.917000", "123851.815000", "123851.818000", "123851.821000", "123851.824000", "123851.827000", "123851.830000", "123851.833000", "123851.836000", "123851.840000", "123851.843000", "123851.846000", "123851.849000", "123851.852000", "123851.855000", "123851.858000", "123851.866000", "123851.869000", "123851.872000", "123851.875000", "123851.878000", "123851.881000", "123851.884000", "123851.887000", "123851.890000", "123851.893000", "123851.896000", "123851.899000", "123851.902000", "123851.905000", "123851.908000", "123851.911000", "123931.814000", "123931.817000", "123931.820000", "123931.823000", "123931.826000", "123931.829000", "123931.833000", "123931.836000", "123931.838000", "123931.841000", "123931.853000", "123931.856000", "123931.859000", "123931.862000", "123931.865000", "123931.868000", "123931.871000", "123931.874000", "123931.877000", "123931.880000", "123931.883000", "123931.886000", "123931.889000", "123931.892000", "123931.895000", "123931.898000", "123931.901000", "123931.904000", "123931.907000", "123931.910000", "123931.914000", "124011.814000", "124011.817000", "124011.820000", "124011.823000", "124011.826000", "124011.829000", "124011.832000", "124011.835000", "124011.838000", "124011.841000", "124011.844000", "124011.847000", "124011.850000", "124011.853000", "124011.856000", "124011.859000", "124011.862000", "124011.865000", "124011.868000", "124011.871000", "124011.875000", "124011.878000", "124011.880000", "124011.884000", "124011.887000", "124011.889000", "124011.892000", "124011.895000", "124011.898000", "124011.902000", "124011.904000", "124011.908000", "124051.814000", "124051.817000", "124051.820000", "124051.823000", "124051.826000", "124051.830000", "124051.833000", "124051.835000", "124051.839000", "124051.842000", "124051.845000", "124051.848000", "124051.851000", "124051.854000", "124051.857000", "124051.860000", "124051.863000", "124051.866000", "124051.869000", "124051.872000", "124051.875000", "124051.878000", "124051.881000", "124051.884000", "124051.887000", "124051.890000", "124051.893000", "124051.896000", "124051.899000", "124051.902000", "124051.905000", "124131.815000", "124131.818000", "124131.821000", "124131.824000", "124131.827000", "124131.830000", "124131.833000", "124131.836000", "124131.840000", "124131.843000", "124131.846000", "124131.849000", "124131.852000", "124131.855000", "124131.858000", "124131.861000", "124131.864000", "124131.867000", "124131.870000", "124131.873000", "124131.876000", "124131.879000", "124131.882000", "124131.885000", "124131.888000", "124131.891000", "124131.894000", "124131.897000", "124131.900000", "124131.903000", "124131.906000", "124211.814000", "124211.817000", "124211.820000", "124211.824000", "124211.827000", "124211.830000", "124211.833000", "124211.836000", "124211.839000", "124211.842000", "124211.845000", "124211.848000", "124211.851000", "124211.854000", "124211.857000", "124211.860000", "124211.863000", "124211.871000", "124211.874000", "124211.877000", "124211.880000", "124211.883000", "124211.886000", "124211.889000", "124211.892000", "124211.895000", "124211.898000", "124211.901000", "124211.904000", "124211.907000", "124211.910000", "124251.814000", "124251.817000", "124251.820000", "124251.823000", "124251.826000", "124251.829000", "124251.833000", "124251.836000", "124251.839000", "124251.842000", "124251.845000", "124251.848000", "124251.851000", "124251.854000", "124251.857000", "124251.860000", "124251.863000", "124251.866000", "124251.869000", "124251.872000", "124251.875000", "124251.878000", "124251.881000", "124251.891000", "124251.894000", "124251.897000", "124251.900000", "124251.903000", "124251.906000", "124251.909000", "124251.912000", "124251.915000", "124331.816000", "124331.819000", "124331.823000", "124331.826000", "124331.829000", "124331.832000", "124331.835000", "124331.838000", "124331.841000", "124331.859000", "124331.862000", "124331.866000", "124331.868000", "124331.871000", "124331.875000", "124331.878000", "124331.881000", "124331.884000", "124331.887000", "124331.890000", "124331.893000", "124331.896000", "124331.900000", "124331.903000", "124331.906000", "124331.909000", "124331.912000", "124331.915000", "124331.918000", "124331.921000", "124331.924000", "124411.814000", "124411.817000", "124411.820000", "124411.823000", "124411.827000", "124411.830000", "124411.833000", "124411.836000", "124411.843000", "124411.846000", "124411.849000", "124411.852000", "124411.861000", "124411.864000", "124411.867000", "124411.870000", "124411.873000", "124411.876000", "124411.879000", "124411.882000", "124411.885000", "124411.889000", "124411.891000", "124411.894000", "124411.897000", "124411.900000", "124411.903000", "124411.906000", "124411.909000", "124411.913000", "124411.916000", "124422.509000", "124422.513000", "124422.516000", "124422.520000", "124422.524000", "124422.528000", "124422.532000", "124422.536000", "124422.541000"],
      "InstanceCreationTime": ["123651.828000", "123651.832000", "123651.835000", "123651.838000", "123651.841000", "123651.844000", "123651.847000", "123651.850000", "123651.853000", "123651.865000", "123651.868000", "123651.871000", "123651.874000", "123651.877000", "123651.880000", "123651.883000", "123651.886000", "123651.889000", "123651.892000", "123651.895000", "123731.814000", "123731.821000", "123731.824000", "123731.827000", "123731.830000", "123731.833000", "123731.836000", "123731.839000", "123731.842000", "123731.845000", "123731.848000", "123731.851000", "123731.854000", "123731.857000", "123731.860000", "123731.863000", "123731.866000", "123731.869000", "123731.872000", "123731.883000", "123731.886000", "123731.889000", "123731.892000", "123731.896000", "123731.899000", "123731.902000", "123731.905000", "123731.908000", "123731.911000", "123731.914000", "123731.917000", "123731.921000", "123811.814000", "123811.817000", "123811.820000", "123811.823000", "123811.826000", "123811.829000", "123811.832000", "123811.835000", "123811.838000", "123811.841000", "123811.844000", "123811.847000", "123811.850000", "123811.853000", "123811.856000", "123811.859000", "123811.862000", "123811.865000", "123811.868000", "123811.871000", "123811.874000", "123811.877000", "123811.881000", "123811.895000", "123811.899000", "123811.902000", "123811.905000", "123811.908000", "123811.911000", "123811.914000", "123811.917000", "123851.815000", "123851.818000", "123851.821000", "123851.824000", "123851.827000", "123851.830000", "123851.833000", "123851.836000", "123851.840000", "123851.843000", "123851.846000", "123851.849000", "123851.852000", "123851.855000", "123851.858000", "123851.866000", "123851.869000", "123851.872000", "123851.875000", "123851.878000", "123851.881000", "123851.884000", "123851.887000", "123851.890000", "123851.893000", "123851.896000", "123851.899000", "123851.902000", "123851.905000", "123851.908000", "123851.911000", "123931.814000", "123931.817000", "123931.820000", "123931.823000", "123931.826000", "123931.829000", "123931.833000", "123931.836000", "123931.838000", "123931.841000", "123931.853000", "123931.856000", "123931.859000", "123931.862000", "123931.865000", "123931.868000", "123931.871000", "123931.874000", "123931.877000", "123931.880000", "123931.883000", "123931.886000", "123931.889000", "123931.892000", "123931.895000", "123931.898000", "123931.901000", "123931.904000", "123931.907000", "123931.910000", "123931.914000", "124011.814000", "124011.817000", "124011.820000", "124011.823000", "124011.826000", "124011.829000", "124011.832000", "124011.835000", "124011.838000", "124011.841000", "124011.844000", "124011.847000", "124011.850000", "124011.853000", "124011.856000", "124011.859000", "124011.862000", "124011.865000", "124011.868000", "124011.871000", "124011.875000", "124011.878000", "124011.880000", "124011.884000", "124011.887000", "124011.889000", "124011.892000", "124011.895000", "124011.898000", "124011.902000", "124011.904000", "124011.908000", "124051.814000", "124051.817000", "124051.820000", "124051.823000", "124051.826000", "124051.830000", "124051.833000", "124051.835000", "124051.839000", "124051.842000", "124051.845000", "124051.848000", "124051.851000", "124051.854000", "124051.857000", "124051.860000", "124051.863000", "124051.866000", "124051.869000", "124051.872000", "124051.875000", "124051.878000", "124051.881000", "124051.884000", "124051.887000", "124051.890000", "124051.893000", "124051.896000", "124051.899000", "124051.902000", "124051.905000", "124131.815000", "124131.818000", "124131.821000", "124131.824000", "124131.827000", "124131.830000", "124131.833000", "124131.836000", "124131.840000", "124131.843000", "124131.846000", "124131.849000", "124131.852000", "124131.855000", "124131.858000", "124131.861000", "124131.864000", "124131.867000", "124131.870000", "124131.873000", "124131.876000", "124131.879000", "124131.882000", "124131.885000", "124131.888000", "124131.891000", "124131.894000", "124131.897000", "124131.900000", "124131.903000", "124131.906000", "124211.814000", "124211.817000", "124211.820000", "124211.824000", "124211.827000", "124211.830000", "124211.833000", "124211.836000", "124211.839000", "124211.842000", "124211.845000", "124211.848000", "124211.851000", "124211.854000", "124211.857000", "124211.860000", "124211.863000", "124211.871000", "124211.874000", "124211.877000", "124211.880000", "124211.883000", "124211.886000", "124211.889000", "124211.892000", "124211.895000", "124211.898000", "124211.901000", "124211.904000", "124211.907000", "124211.910000", "124251.814000", "124251.817000", "124251.820000", "124251.823000", "124251.826000", "124251.829000", "124251.833000", "124251.836000", "124251.839000", "124251.842000", "124251.845000", "124251.848000", "124251.851000", "124251.854000", "124251.857000", "124251.860000", "124251.863000", "124251.866000", "124251.869000", "124251.872000", "124251.875000", "124251.878000", "124251.881000", "124251.891000", "124251.894000", "124251.897000", "124251.900000", "124251.903000", "124251.906000", "124251.909000", "124251.912000", "124251.915000", "124331.816000", "124331.819000", "124331.823000", "124331.826000", "124331.829000", "124331.832000", "124331.835000", "124331.838000", "124331.841000", "124331.859000", "124331.862000", "124331.866000", "124331.868000", "124331.871000", "124331.875000", "124331.878000", "124331.881000", "124331.884000", "124331.887000", "124331.890000", "124331.893000", "124331.896000", "124331.900000", "124331.903000", "124331.906000", "124331.909000", "124331.912000", "124331.915000", "124331.918000", "124331.921000", "124331.924000", "124411.814000", "124411.817000", "124411.820000", "124411.823000", "124411.827000", "124411.830000", "124411.833000", "124411.836000", "124411.843000", "124411.846000", "124411.849000", "124411.852000", "124411.861000", "124411.864000", "124411.867000", "124411.870000", "124411.873000", "124411.876000", "124411.879000", "124411.882000", "124411.885000", "124411.889000", "124411.891000", "124411.894000", "124411.897000", "124411.900000", "124411.903000", "124411.906000", "124411.909000", "124411.913000", "124411.916000", "124422.509000", "124422.513000", "124422.516000", "124422.520000", "124422.524000", "124422.528000", "124422.532000", "124422.536000", "124422.541000"],
      "InstanceNumber": [1, 2, 3, 4, 5, 6, 7, 8, 9, 10, 11, 12, 13, 14, 15, 16, 17, 18, 19, 20, 21, 22, 23, 24, 25, 26, 27, 28, 29, 30, 31, 32, 33, 34, 35, 36, 37, 38, 39, 40, 41, 42, 43, 44, 45, 46, 47, 48, 49, 50, 51, 52, 53, 54, 55, 56, 57, 58, 59, 60, 61, 62, 63, 64, 65, 66, 67, 68, 69, 70, 71, 72, 73, 74, 75, 76, 77, 78, 79, 80, 81, 82, 83, 84, 85, 86, 87, 88, 89, 90, 91, 92, 93, 94, 95, 96, 97, 98, 99, 100, 101, 102, 103, 104, 105, 106, 107, 108, 109, 110, 111, 112, 113, 114, 115, 116, 117, 118, 119, 120, 121, 122, 123, 124, 125, 126, 127, 128, 129, 130, 131, 132, 133, 134, 135, 136, 137, 138, 139, 140, 141, 142, 143, 144, 145, 146, 147, 148, 149, 150, 151, 152, 153, 154, 155, 156, 157, 158, 159, 160, 161, 162, 163, 164, 165, 166, 167, 168, 169, 170, 171, 172, 173, 174, 175, 176, 177, 178, 179, 180, 181, 182, 183, 184, 185, 186, 187, 188, 189, 190, 191, 192, 193, 194, 195, 196, 197, 198, 199, 200, 201, 202, 203, 204, 205, 206, 207, 208, 209, 210, 211, 212, 213, 214, 215, 216, 217, 218, 219, 220, 221, 222, 223, 224, 225, 226, 227, 228, 229, 230, 231, 232, 233, 234, 235, 236, 237, 238, 239, 240, 241, 242, 243, 244, 245, 246, 247, 248, 249, 250, 251, 252, 253, 254, 255, 256, 257, 258, 259, 260, 261, 262, 263, 264, 265, 266, 267, 268, 269, 270, 271, 272, 273, 274, 275, 276, 277, 278, 279, 280, 281, 282, 283, 284, 285, 286, 287, 288, 289, 290, 291, 292, 293, 294, 295, 296, 297, 298, 299, 300, 301, 302, 303, 304, 305, 306, 307, 308, 309, 310, 311, 312, 313, 314, 315, 316, 317, 318, 319, 320, 321, 322, 323, 324, 325, 326, 327, 328, 329, 330, 331, 332, 333, 334, 335, 336, 337, 338, 339, 340, 341, 342, 343, 344, 345, 346, 347, 348, 349, 350, 351, 352, 353, 354, 355, 356, 357, 358, 359, 360, 361, 362, 363, 364, 365, 366, 367, 368, 369, 370, 371, 372, 373],
