{
  "AcquisitionMatrixPE": 108,
  "AcquisitionNumber": 1,
  "AcquisitionTime": "12:45:20.485000",
  "BandwidthPerPixelPhaseEncode": 15.964,
  "BaseResolution": 108,
  "BodyPartExamined": "BRAIN",
  "ConsistencyInfo": "N4_VE11C_LATEST_20160120",
  "ConversionSoftware": "dcm2niix",
  "ConversionSoftwareVersion": "v1.0.20180622 GCC6.3.0",
  "DerivedVendorReportedEchoSpacing": 0.000580009,
  "DeviceSerialNumber": "66054",
  "DwellTime": 2.1e-06,
  "EchoTime": 0.031,
  "EchoTrainLength": 95,
  "EffectiveEchoSpacing": 0.000580009,
  "FlipAngle": 64,
  "ImageOrientationPatientDICOM": [0.997162, -0.00161039, -0.0752646, -0.0330793, 0.88871, -0.457275],
  "ImageType": [
    "ORIGINAL",
    "PRIMARY",
    "M",
    "ND",
    "MOSAIC"
],
  "InPlanePhaseEncodingDirectionDICOM": "COL",
  "InstitutionAddress": "Chemin_des_Mines_9_Geneve_District_CH_1211",
  "InstitutionName": "Fondation_Campus_Biotech_Geneva",
  "InstitutionalDepartmentName": "Department",
  "MRAcquisitionType": "2D",
  "MagneticFieldStrength": 3,
  "Manufacturer": "Siemens",
  "ManufacturersModelName": "Prisma",
  "Modality": "MR",
  "MultibandAccelerationFactor": 4,
  "PartialFourier": 0.875,
  "PatientPosition": "HFS",
  "PercentPhaseFOV": 100,
  "PhaseEncodingDirection": "j-",
  "PhaseEncodingSteps": 95,
  "PhaseResolution": 1,
  "PixelBandwidth": 2205,
  "ProcedureStepDescription": "J.DRM_Michael",
  "ProtocolName": "Rest_bold_s4_TR1.28",
  "PulseSequenceDetails": "%SiemensSeq%_ep2d_bold",
  "ReceiveCoilActiveElements": "HC1-7;NC1,2",
  "ReceiveCoilName": "HeadNeck_64",
  "ReconMatrixPE": 108,
  "RepetitionTime": 1.28,
  "SAR": 0.0759362,
  "ScanOptions": "PFP_FS",
  "ScanningSequence": "EP",
  "SequenceName": "_epfid2d1_108",
  "SequenceVariant": "SK",
  "SeriesDescription": "Rest_bold_s4_TR1.28",
  "SeriesNumber": 14,
  "ShimSetting": [-1274, -11620, 6467, 462, 205, 128, -45, 51],
  "SliceThickness": 2,
  "SliceTiming": [0.945, 0, 0.63, 0.0775, 0.7075, 0.1575, 0.7875, 0.235, 0.865, 0.3925, 1.0225, 0.4725, 1.1025, 0.55, 1.18, 0.315, 0.945, 0, 0.63, 0.0775, 0.7075, 0.1575, 0.7875, 0.235, 0.865, 0.3925, 1.0225, 0.4725, 1.1025, 0.55, 1.18, 0.315, 0.945, 0, 0.63, 0.0775, 0.7075, 0.1575, 0.7875, 0.235, 0.865, 0.3925, 1.0225, 0.4725, 1.1025, 0.55, 1.18, 0.315, 0.945, 0, 0.63, 0.0775, 0.7075, 0.1575, 0.7875, 0.235, 0.865, 0.3925, 1.0225, 0.4725, 1.1025, 0.55, 1.18, 0.315],
  "SoftwareVersions": "syngo_MR_E11",
  "SpacingBetweenSlices": 2,
  "StationName": "AWP66054",
  "TaskName": "rest",
  "TotalReadoutTime": 0.0620609,
  "TxRefAmp": 275.084,
  "dcmmeta_affine": [
    [-1.9850916862487793, -0.06585238128900528, -0.13524949550628662, 109.13760375976562],
    [0.003205870511010289, 1.769190788269043, -0.9169348478317261, -66.5162353515625],
    [-0.14983226358890533, 0.9103166460990906, 1.7722691297531128, -81.94861602783203],
    [0.0, 0.0, 0.0, 1.0]
],
  "dcmmeta_reorient_transform": [
    [0.0, -1.0, 0.0, 107.0],
    [1.0, 0.0, 0.0, 0.0],
    [0.0, 0.0, 1.0, 0.0],
    [0.0, 0.0, 0.0, 1.0]
],
  "dcmmeta_shape": [108, 108, 64, 250],
  "dcmmeta_slice_dim": 2,
  "dcmmeta_version": 0.6,
  "global": {
    "const": {
      "AccessionNumber": "",
      "AcquisitionMatrix": [108, 0, 0, 108],
      "AngioFlag": "N",
      "BitsAllocated": 16,
      "BitsStored": 12,
      "BodyPartExamined": "BRAIN",
      "Columns": 864,
      "EchoNumbers": 1,
      "EchoTime": 31.0,
      "EchoTrainLength": 95,
      "FlipAngle": 64.0,
      "HighBit": 11,
      "ImageOrientationPatient": [0.99716229898323, -0.001610390686, -0.0752645741921, -0.0330793335051, 0.88870974808169, -0.4572753452346],
      "ImagePositionPatient": [-827.56384068892, -790.32945114603, 416.19156844712],
      "ImageType": [
        "ORIGINAL",
        "PRIMARY",
        "M",
        "ND",
        "MOSAIC"
],
      "ImagedNucleus": "1H",
      "ImagingFrequency": 123.257379,
      "InPlanePhaseEncodingDirection": "COL",
      "MRAcquisitionType": "2D",
      "MagneticFieldStrength": 3.0,
      "Manufacturer": "SIEMENS",
      "ManufacturerModelName": "Prisma",
      "Modality": "MR",
      "NumberOfAverages": 1.0,
      "NumberOfPhaseEncodingSteps": 95,
      "PercentPhaseFieldOfView": 100.0,
      "PercentSampling": 100.0,
      "PerformedProcedureStepStartTime": "112113.180000",
      "PhotometricInterpretation": "MONOCHROME2",
      "PixelBandwidth": 2205.0,
      "PixelRepresentation": 0,
      "PixelSpacing": [1.990740776062, 1.990740776062],
      "PositionReferenceIndicator": "",
      "ProtocolName": "Rest_bold_s4_TR1.28",
      "RepetitionTime": 1280.0,
      "Rows": 864,
      "SAR": 0.07593616645422,
      "SamplesPerPixel": 1,
      "ScanOptions": [
        "PFP",
        "FS"
],
      "ScanningSequence": "EP",
      "SequenceName": "*epfid2d1_108",
      "SequenceVariant": "SK",
      "SeriesDescription": "Rest_bold_s4_TR1.28",
      "SeriesNumber": 14,
      "SeriesTime": "124531.670000",
      "SliceLocation": -49.502374793823,
      "SliceThickness": 2.0,
      "SmallestImagePixelValue": 0,
      "SoftwareVersions": "syngo MR E11",
      "SpacingBetweenSlices": 1.9999999538746,
      "SpecificCharacterSet": "ISO_IR 100",
      "StudyID": "1",
      "StudyTime": "112113.119000",
      "TransmitCoilName": "Body",
      "VariableFlipAngleFlag": "N",
      "WindowCenterWidthExplanation": "Algo1",
      "dBdt": 0.0},
    "slices": {}
  },
  "time": {
    "samples": {
      "AcquisitionNumber": [1, 2, 3, 4, 5, 6, 7, 8, 9, 10, 11, 12, 13, 14, 15, 16, 17, 18, 19, 20, 21, 22, 23, 24, 25, 26, 27, 28, 29, 30, 31, 32, 33, 34, 35, 36, 37, 38, 39, 40, 41, 42, 43, 44, 45, 46, 47, 48, 49, 50, 51, 52, 53, 54, 55, 56, 57, 58, 59, 60, 61, 62, 63, 64, 65, 66, 67, 68, 69, 70, 71, 72, 73, 74, 75, 76, 77, 78, 79, 80, 81, 82, 83, 84, 85, 86, 87, 88, 89, 90, 91, 92, 93, 94, 95, 96, 97, 98, 99, 100, 101, 102, 103, 104, 105, 106, 107, 108, 109, 110, 111, 112, 113, 114, 115, 116, 117, 118, 119, 120, 121, 122, 123, 124, 125, 126, 127, 128, 129, 130, 131, 132, 133, 134, 135, 136, 137, 138, 139, 140, 141, 142, 143, 144, 145, 146, 147, 148, 149, 150, 151, 152, 153, 154, 155, 156, 157, 158, 159, 160, 161, 162, 163, 164, 165, 166, 167, 168, 169, 170, 171, 172, 173, 174, 175, 176, 177, 178, 179, 180, 181, 182, 183, 184, 185, 186, 187, 188, 189, 190, 191, 192, 193, 194, 195, 196, 197, 198, 199, 200, 201, 202, 203, 204, 205, 206, 207, 208, 209, 210, 211, 212, 213, 214, 215, 216, 217, 218, 219, 220, 221, 222, 223, 224, 225, 226, 227, 228, 229, 230, 231, 232, 233, 234, 235, 236, 237, 238, 239, 240, 241, 242, 243, 244, 245, 246, 247, 248, 249, 250],
      "AcquisitionTime": ["124520.485000", "124521.765000", "124523.045000", "124524.325000", "124525.605000", "124526.885000", "124528.165000", "124529.445000", "124530.725000", "124532.005000", "124533.285000", "124534.565000", "124535.845000", "124537.125000", "124538.405000", "124539.685000", "124540.965000", "124542.245000", "124543.525000", "124544.805000", "124546.085000", "124547.365000", "124548.645000", "124549.925000", "124551.205000", "124552.485000", "124553.765000", "124555.045000", "124556.325000", "124557.605000", "124558.885000", "124600.165000", "124601.445000", "124602.725000", "124604.005000", "124605.285000", "124606.565000", "124607.845000", "124609.125000", "124610.405000", "124611.685000", "124612.965000", "124614.245000", "124615.525000", "124616.805000", "124618.085000", "124619.365000", "124620.645000", "124621.925000", "124623.205000", "124624.485000", "124625.765000", "124627.045000", "124628.325000", "124629.605000", "124630.885000", "124632.165000", "124633.445000", "124634.725000", "124636.005000", "124637.285000", "124638.565000", "124639.845000", "124641.125000", "124642.405000", "124643.685000", "124644.965000", "124646.245000", "124647.525000", "124648.805000", "124650.085000", "124651.365000", "124652.645000", "124653.925000", "124655.205000", "124656.485000", "124657.765000", "124659.045000", "124700.325000", "124701.605000", "124702.885000", "124704.165000", "124705.445000", "124706.725000", "124708.005000", "124709.285000", "124710.565000", "124711.845000", "124713.125000", "124714.405000", "124715.685000", "124716.965000", "124718.245000", "124719.525000", "124720.805000", "124722.085000", "124723.365000", "124724.645000", "124725.925000", "124727.205000", "124728.485000", "124729.765000", "124731.045000", "124732.325000", "124733.605000", "124734.885000", "124736.165000", "124737.445000", "124738.725000", "124740.005000", "124741.285000", "124742.565000", "124743.845000", "124745.125000", "124746.405000", "124747.685000", "124748.965000", "124750.245000", "124751.525000", "124752.805000", "124754.085000", "124755.365000", "124756.645000", "124757.925000", "124759.205000", "124800.485000", "124801.765000", "124803.045000", "124804.325000", "124805.605000", "124806.885000", "124808.165000", "124809.445000", "124810.725000", "124812.005000", "124813.285000", "124814.565000", "124815.845000", "124817.125000", "124818.405000", "124819.685000", "124820.965000", "124822.245000", "124823.525000", "124824.805000", "124826.085000", "124827.365000", "124828.645000", "124829.925000", "124831.205000", "124832.485000", "124833.765000", "124835.045000", "124836.325000", "124837.605000", "124838.885000", "124840.165000", "124841.445000", "124842.725000", "124844.005000", "124845.285000", "124846.565000", "124847.845000", "124849.125000", "124850.405000", "124851.685000", "124852.965000", "124854.245000", "124855.525000", "124856.805000", "124858.085000", "124859.365000", "124900.645000", "124901.925000", "124903.205000", "124904.485000", "124905.765000", "124907.045000", "124908.325000", "124909.605000", "124910.885000", "124912.165000", "124913.445000", "124914.725000", "124916.005000", "124917.285000", "124918.565000", "124919.845000", "124921.125000", "124922.405000", "124923.685000", "124924.965000", "124926.245000", "124927.525000", "124928.805000", "124930.085000", "124931.365000", "124932.645000", "124933.925000", "124935.205000", "124936.485000", "124937.765000", "124939.045000", "124940.325000", "124941.605000", "124942.885000", "124944.165000", "124945.445000", "124946.725000", "124948.005000", "124949.285000", "124950.565000", "124951.845000", "124953.125000", "124954.405000", "124955.685000", "124956.965000", "124958.245000", "124959.525000", "125000.805000", "125002.085000", "125003.365000", "125004.645000", "125005.925000", "125007.205000", "125008.485000", "125009.765000", "125011.045000", "125012.325000", "125013.605000", "125014.885000", "125016.165000", "125017.445000", "125018.725000", "125020.005000", "125021.285000", "125022.565000", "125023.845000", "125025.125000", "125026.405000", "125027.685000", "125028.965000", "125030.245000", "125031.525000", "125032.805000", "125034.085000", "125035.365000", "125036.645000", "125037.925000", "125039.205000"],
      "ContentTime": ["124531.674000", "124531.677000", "124531.680000", "124531.683000", "124531.687000", "124531.689000", "124531.692000", "124531.695000", "124611.670000", "124611.674000", "124611.677000", "124611.680000", "124611.683000", "124611.687000", "124611.697000", "124611.700000", "124611.703000", "124611.706000", "124611.710000", "124611.713000", "124611.716000", "124611.719000", "124611.722000", "124611.725000", "124611.728000", "124611.731000", "124611.735000", "124611.743000", "124611.746000", "124611.750000", "124611.753000", "124611.756000", "124611.759000", "124611.762000", "124611.765000", "124611.768000", "124611.771000", "124611.775000", "124611.778000", "124651.669000", "124651.675000", "124651.678000", "124651.681000", "124651.684000", "124651.687000", "124651.690000", "124651.693000", "124651.696000", "124651.699000", "124651.702000", "124651.705000", "124651.708000", "124651.711000", "124651.714000", "124651.717000", "124651.720000", "124651.723000", "124651.726000", "124651.729000", "124651.733000", "124651.736000", "124651.738000", "124651.747000", "124651.750000", "124651.753000", "124651.756000", "124651.759000", "124651.762000", "124651.774000", "124651.778000", "124731.669000", "124731.672000", "124731.675000", "124731.678000", "124731.681000", "124731.684000", "124731.687000", "124731.690000", "124731.693000", "124731.696000", "124731.699000", "124731.702000", "124731.705000", "124731.708000", "124731.711000", "124731.714000", "124731.717000", "124731.721000", "124731.723000", "124731.726000", "124731.729000", "124731.733000", "124731.735000", "124731.738000", "124731.741000", "124731.745000", "124731.747000", "124731.750000", "124731.753000", "124731.757000", "124731.759000", "124731.762000", "124811.670000", "124811.673000", "124811.676000", "124811.679000", "124811.682000", "124811.685000", "124811.688000", "124811.691000", "124811.694000", "124811.697000", "124811.700000", "124811.703000", "124811.706000", "124811.709000", "124811.712000", "124811.715000", "124811.718000", "124811.721000", "124811.735000", "124811.738000", "124811.741000", "124811.744000", "124811.747000", "124811.750000", "124811.753000", "124811.756000", "124811.759000", "124811.762000", "124811.765000", "124811.768000", "124811.771000", "124851.669000", "124851.672000", "124851.675000", "124851.678000", "124851.681000", "124851.684000", "124851.688000", "124851.691000", "124851.694000", "124851.697000", "124851.700000", "124851.703000", "124851.706000", "124851.709000", "124851.712000", "124851.715000", "124851.718000", "124851.721000", "124851.729000", "124851.732000", "124851.735000", "124851.738000", "124851.742000", "124851.745000", "124851.748000", "124851.751000", "124851.754000", "124851.757000", "124851.760000", "124851.763000", "124851.766000", "124931.669000", "124931.672000", "124931.676000", "124931.678000", "124931.681000", "124931.685000", "124931.688000", "124931.691000", "124931.693000", "124931.697000", "124931.700000", "124931.702000", "124931.705000", "124931.709000", "124931.712000", "124931.714000", "124931.717000", "124931.721000", "124931.724000", "124931.726000", "124931.729000", "124931.733000", "124931.735000", "124931.738000", "124931.741000", "124931.745000", "124931.748000", "124931.750000", "124931.753000", "124931.757000", "124931.760000", "125011.669000", "125011.672000", "125011.675000", "125011.678000", "125011.681000", "125011.684000", "125011.687000", "125011.690000", "125011.702000", "125011.705000", "125011.708000", "125011.711000", "125011.714000", "125011.717000", "125011.720000", "125011.723000", "125011.726000", "125011.729000", "125011.733000", "125011.736000", "125011.739000", "125011.742000", "125011.745000", "125011.748000", "125011.751000", "125011.754000", "125011.757000", "125011.760000", "125011.763000", "125011.766000", "125011.769000", "125011.772000", "125040.875000", "125040.878000", "125040.881000", "125040.884000", "125040.887000", "125040.890000", "125040.893000", "125040.896000", "125040.900000", "125040.908000", "125040.911000", "125040.914000", "125040.917000", "125040.921000", "125040.924000", "125040.927000", "125040.934000", "125040.937000", "125040.947000", "125040.950000", "125040.958000", "125040.962000", "125040.988000"],
      "InstanceCreationTime": ["124531.674000", "124531.677000", "124531.680000", "124531.683000", "124531.687000", "124531.689000", "124531.692000", "124531.695000", "124611.670000", "124611.674000", "124611.677000", "124611.680000", "124611.683000", "124611.687000", "124611.697000", "124611.700000", "124611.703000", "124611.706000", "124611.710000", "124611.713000", "124611.716000", "124611.719000", "124611.722000", "124611.725000", "124611.728000", "124611.731000", "124611.735000", "124611.743000", "124611.746000", "124611.750000", "124611.753000", "124611.756000", "124611.759000", "124611.762000", "124611.765000", "124611.768000", "124611.771000", "124611.775000", "124611.778000", "124651.669000", "124651.675000", "124651.678000", "124651.681000", "124651.684000", "124651.687000", "124651.690000", "124651.693000", "124651.696000", "124651.699000", "124651.702000", "124651.705000", "124651.708000", "124651.711000", "124651.714000", "124651.717000", "124651.720000", "124651.723000", "124651.726000", "124651.729000", "124651.733000", "124651.736000", "124651.738000", "124651.747000", "124651.750000", "124651.753000", "124651.756000", "124651.759000", "124651.762000", "124651.774000", "124651.778000", "124731.669000", "124731.672000", "124731.675000", "124731.678000", "124731.681000", "124731.684000", "124731.687000", "124731.690000", "124731.693000", "124731.696000", "124731.699000", "124731.702000", "124731.705000", "124731.708000", "124731.711000", "124731.714000", "124731.717000", "124731.721000", "124731.723000", "124731.726000", "124731.729000", "124731.733000", "124731.735000", "124731.738000", "124731.741000", "124731.745000", "124731.747000", "124731.750000", "124731.753000", "124731.757000", "124731.759000", "124731.762000", "124811.670000", "124811.673000", "124811.676000", "124811.679000", "124811.682000", "124811.685000", "124811.688000", "124811.691000", "124811.694000", "124811.697000", "124811.700000", "124811.703000", "124811.706000", "124811.709000", "124811.712000", "124811.715000", "124811.718000", "124811.721000", "124811.735000", "124811.738000", "124811.741000", "124811.744000", "124811.747000", "124811.750000", "124811.753000", "124811.756000", "124811.759000", "124811.762000", "124811.765000", "124811.768000", "124811.771000", "124851.669000", "124851.672000", "124851.675000", "124851.678000", "124851.681000", "124851.684000", "124851.688000", "124851.691000", "124851.694000", "124851.697000", "124851.700000", "124851.703000", "124851.706000", "124851.709000", "124851.712000", "124851.715000", "124851.718000", "124851.721000", "124851.729000", "124851.732000", "124851.735000", "124851.738000", "124851.742000", "124851.745000", "124851.748000", "124851.751000", "124851.754000", "124851.757000", "124851.760000", "124851.763000", "124851.766000", "124931.669000", "124931.672000", "124931.676000", "124931.678000", "124931.681000", "124931.685000", "124931.688000", "124931.691000", "124931.693000", "124931.697000", "124931.700000", "124931.702000", "124931.705000", "124931.709000", "124931.712000", "124931.714000", "124931.717000", "124931.721000", "124931.724000", "124931.726000", "124931.729000", "124931.733000", "124931.735000", "124931.738000", "124931.741000", "124931.745000", "124931.748000", "124931.750000", "124931.753000", "124931.757000", "124931.760000", "125011.669000", "125011.672000", "125011.675000", "125011.678000", "125011.681000", "125011.684000", "125011.687000", "125011.690000", "125011.702000", "125011.705000", "125011.708000", "125011.711000", "125011.714000", "125011.717000", "125011.720000", "125011.723000", "125011.726000", "125011.729000", "125011.733000", "125011.736000", "125011.739000", "125011.742000", "125011.745000", "125011.748000", "125011.751000", "125011.754000", "125011.757000", "125011.760000", "125011.763000", "125011.766000", "125011.769000", "125011.772000", "125040.875000", "125040.878000", "125040.881000", "125040.884000", "125040.887000", "125040.890000", "125040.893000", "125040.896000", "125040.900000", "125040.908000", "125040.911000", "125040.914000", "125040.917000", "125040.921000", "125040.924000", "125040.927000", "125040.934000", "125040.937000", "125040.947000", "125040.950000", "125040.958000", "125040.962000", "125040.988000"],
      "InstanceNumber": [1, 2, 3, 4, 5, 6, 7, 8, 9, 10, 11, 12, 13, 14, 15, 16, 17, 18, 19, 20, 21, 22, 23, 24, 25, 26, 27, 28, 29, 30, 31, 32, 33, 34, 35, 36, 37, 38, 39, 40, 41, 42, 43, 44, 45, 46, 47, 48, 49, 50, 51, 52, 53, 54, 55, 56, 57, 58, 59, 60, 61, 62, 63, 64, 65, 66, 67, 68, 69, 70, 71, 72, 73, 74, 75, 76, 77, 78, 79, 80, 81, 82, 83, 84, 85, 86, 87, 88, 89, 90, 91, 92, 93, 94, 95, 96, 97, 98, 99, 100, 101, 102, 103, 104, 105, 106, 107, 108, 109, 110, 111, 112, 113, 114, 115, 116, 117, 118, 119, 120, 121, 122, 123, 124, 125, 126, 127, 128, 129, 130, 131, 132, 133, 134, 135, 136, 137, 138, 139, 140, 141, 142, 143, 144, 145, 146, 147, 148, 149, 150, 151, 152, 153, 154, 155, 156, 157, 158, 159, 160, 161, 162, 163, 164, 165, 166, 167, 168, 169, 170, 171, 172, 173, 174, 175, 176, 177, 178, 179, 180, 181, 182, 183, 184, 185, 186, 187, 188, 189, 190, 191, 192, 193, 194, 195, 196, 197, 198, 199, 200, 201, 202, 203, 204, 205, 206, 207, 208, 209, 210, 211, 212, 213, 214, 215, 216, 217, 218, 219, 220, 221, 222, 223, 224, 225, 226, 227, 228, 229, 230, 231, 232, 233, 234, 235, 236, 237, 238, 239, 240, 241, 242, 243, 244, 245, 246, 247, 248, 249, 250],
      "LargestImagePixelValue": [2317, 2227, 2259, 2892, 2162, 2221, 2250, 2242, 2197, 2163, 2146, 2141, 2149, 2142, 2869, 2338, 2451, 2180, 2255, 2313, 2152, 2719, 2257, 2209, 2179, 2293, 2270, 2375, 2212, 2273, 2229, 2357, 2206, 2213, 2280, 2451, 2271, 2275, 2245, 2234, 2274, 2431, 2238, 2280, 2282, 2227, 2210, 2443, 2331, 2269, 2348, 2292, 2305, 2326, 2347, 2215, 2295, 2309, 2283, 2295, 2296, 2310, 2322, 2240, 2393, 2219, 2257, 2273, 2271, 2307, 2424, 2236, 2157, 2278, 2170, 2269, 2219, 2323, 2181, 2145, 2184, 2139, 2094, 2047, 2090, 2696, 2320, 2263, 2264, 2216, 2270, 2265, 2312, 2369, 2253, 2114, 2100, 2097, 2123, 2078, 2088, 2118, 2091, 2134, 2096, 2855, 2646, 2393, 2228, 2207, 2275, 2169, 2163, 2205, 2362, 2277, 2257, 2372, 2219, 2148, 2173, 2207, 2164, 2209, 2257, 2223, 2416, 2193, 2401, 2590, 2361, 2339, 2227, 2360, 2261, 2269, 2179, 2136, 2147, 2400, 2514, 2373, 2279, 2314, 2370, 2406, 2369, 2359, 2352, 2148, 2277, 2119, 2556, 2277, 2347, 2333, 2400, 2270, 2287, 2398, 2277, 2257, 2407, 2303, 2337, 2310, 2243, 2309, 2273, 2261, 2206, 2112, 2267, 2405, 2284, 2322, 2242, 2429, 2290, 2164, 2195, 2236, 2210, 2157, 2241, 2161, 2189, 2221, 2277, 2131, 2283, 2175, 2506, 2283, 2198, 2359, 2219, 2188, 2186, 2330, 2239, 2135, 2213, 2202, 2152, 2157, 2201, 2173, 2353, 2258, 2212, 2207, 2228, 2176, 2091, 2494, 2406, 2296, 2205, 2426, 2314, 2254, 2188, 2319, 2245, 2535, 2456, 2322, 2264, 2334, 2190, 2288, 2244, 2189, 2272, 2230, 2148, 2189, 2319, 2239, 2210, 2490, 2313, 2245, 2371, 2327, 2317, 2304, 2185, 2102],
      "WindowCenter": [639.0, 636.0, 636.0, 641.0, 634.0, 635.0, 635.0, 635.0, 635.0, 635.0, 635.0, 636.0, 636.0, 636.0, 642.0, 638.0, 640.0, 637.0, 638.0, 640.0, 639.0, 645.0, 640.0, 640.0, 639.0, 641.0, 640.0, 641.0, 639.0, 640.0, 640.0, 641.0, 639.0, 640.0, 640.0, 641.0, 638.0, 638.0, 637.0, 636.0, 637.0, 638.0, 638.0, 639.0, 639.0, 639.0, 639.0, 640.0, 639.0, 638.0, 639.0, 638.0, 639.0, 639.0, 640.0, 639.0, 639.0, 639.0, 640.0, 639.0, 639.0, 639.0, 639.0, 638.0, 639.0, 637.0, 639.0, 639.0, 638.0, 638.0, 639.0, 637.0, 636.0, 637.0, 636.0, 638.0, 637.0, 638.0, 636.0, 635.0, 636.0, 635.0, 635.0, 634.0, 635.0, 641.0, 638.0, 639.0, 640.0, 638.0, 638.0, 637.0, 637.0, 638.0, 637.0, 637.0, 637.0, 636.0, 637.0, 638.0, 638.0, 638.0, 638.0, 638.0, 638.0, 645.0, 644.0, 642.0, 639.0, 638.0, 638.0, 635.0, 634.0, 634.0, 635.0, 634.0, 634.0, 635.0, 634.0, 633.0, 634.0, 635.0, 636.0, 638.0, 640.0, 640.0, 642.0, 640.0, 641.0, 643.0, 640.0, 639.0, 638.0, 640.0, 639.0, 639.0, 639.0, 639.0, 638.0, 639.0, 640.0, 638.0, 636.0, 637.0, 637.0, 637.0, 637.0, 638.0, 639.0, 637.0, 640.0, 638.0, 643.0, 640.0, 640.0, 640.0, 640.0, 639.0, 639.0, 640.0, 639.0, 638.0, 639.0, 637.0, 637.0, 636.0, 635.0, 636.0, 636.0, 636.0, 636.0, 636.0, 638.0, 640.0, 640.0, 642.0, 641.0, 642.0, 641.0, 640.0, 641.0, 641.0, 640.0, 640.0, 640.0, 638.0, 639.0, 639.0, 640.0, 639.0, 641.0, 641.0, 645.0, 643.0, 641.0, 641.0, 637.0, 635.0, 634.0, 635.0, 633.0, 631.0, 632.0, 632.0, 632.0, 632.0, 632.0, 631.0, 633.0, 632.0, 632.0, 632.0, 634.0, 634.0, 633.0, 638.0, 638.0, 638.0, 638.0, 641.0, 639.0, 639.0, 638.0, 639.0, 639.0, 641.0, 642.0, 640.0, 640.0, 641.0, 641.0, 642.0, 641.0, 640.0, 641.0, 640.0, 638.0, 638.0, 638.0, 636.0, 636.0, 638.0, 636.0, 636.0, 637.0, 637.0, 637.0, 638.0, 637.0, 637.0],
      "WindowWidth": [1340.0, 1334.0, 1333.0, 1341.0, 1330.0, 1330.0, 1330.0, 1331.0, 1331.0, 1330.0, 1331.0, 1333.0, 1334.0, 1334.0, 1344.0, 1337.0, 1340.0, 1336.0, 1338.0, 1342.0, 1341.0, 1351.0, 1343.0, 1342.0, 1342.0, 1343.0, 1343.0, 1344.0, 1341.0, 1342.0, 1341.0, 1343.0, 1341.0, 1342.0, 1342.0, 1342.0, 1338.0, 1336.0, 1334.0, 1333.0, 1334.0, 1337.0, 1336.0, 1339.0, 1341.0, 1340.0, 1339.0, 1342.0, 1340.0, 1338.0, 1339.0, 1338.0, 1341.0, 1341.0, 1341.0, 1340.0, 1341.0, 1341.0, 1341.0, 1341.0, 1339.0, 1340.0, 1340.0, 1338.0, 1340.0, 1336.0, 1340.0, 1339.0, 1337.0, 1337.0, 1338.0, 1335.0, 1334.0, 1336.0, 1334.0, 1337.0, 1337.0, 1337.0, 1333.0, 1332.0, 1332.0, 1332.0, 1331.0, 1330.0, 1332.0, 1343.0, 1339.0, 1339.0, 1341.0, 1339.0, 1338.0, 1336.0, 1336.0, 1337.0, 1336.0, 1335.0, 1336.0, 1335.0, 1336.0, 1338.0, 1339.0, 1339.0, 1338.0, 1339.0, 1339.0, 1352.0, 1351.0, 1348.0, 1342.0, 1339.0, 1337.0, 1332.0, 1330.0, 1329.0, 1330.0, 1329.0, 1328.0, 1331.0, 1328.0, 1328.0, 1330.0, 1331.0, 1334.0, 1338.0, 1342.0, 1343.0, 1347.0, 1344.0, 1345.0, 1348.0, 1343.0, 1340.0, 1337.0, 1341.0, 1340.0, 1340.0, 1341.0, 1341.0, 1339.0, 1340.0, 1341.0, 1336.0, 1332.0, 1334.0, 1334.0, 1335.0, 1336.0, 1337.0, 1338.0, 1336.0, 1342.0, 1339.0, 1347.0, 1343.0, 1342.0, 1341.0, 1342.0, 1340.0, 1340.0, 1341.0, 1339.0, 1338.0, 1338.0, 1336.0, 1334.0, 1332.0, 1331.0, 1332.0, 1333.0, 1334.0, 1334.0, 1334.0, 1338.0, 1343.0, 1342.0, 1346.0, 1344.0, 1347.0, 1345.0, 1344.0, 1346.0, 1344.0, 1343.0, 1342.0, 1342.0, 1340.0, 1340.0, 1341.0, 1342.0, 1341.0, 1344.0, 1345.0, 1353.0, 1351.0, 1345.0, 1344.0, 1336.0, 1331.0, 1329.0, 1329.0, 1325.0, 1322.0, 1324.0, 1325.0, 1324.0, 1324.0, 1324.0, 1323.0, 1325.0, 1323.0, 1324.0, 1325.0, 1328.0, 1328.0, 1328.0, 1336.0, 1338.0, 1338.0, 1339.0, 1344.0, 1341.0, 1339.0, 1338.0, 1340.0, 1339.0, 1344.0, 1345.0, 1342.0, 1342.0, 1345.0, 1344.0, 1347.0, 1345.0, 1344.0, 1345.0, 1343.0, 1339.0, 1337.0, 1338.0, 1334.0, 1333.0, 1335.0, 1332.0, 1332.0, 1335.0, 1334.0, 1336.0, 1338.0, 1337.0, 1336.0]
    },
    "slices": {}
  }
}