{
  "AcquisitionMatrixPE": 108,
  "AcquisitionNumber": 1,
  "AcquisitionTime": "12:27:20.647500",
  "BandwidthPerPixelPhaseEncode": 15.964,
  "BaseResolution": 108,
  "BodyPartExamined": "BRAIN",
  "ConsistencyInfo": "N4_VE11C_LATEST_20160120",
  "ConversionSoftware": "dcm2niix",
  "ConversionSoftwareVersion": "v1.0.20180622 GCC6.3.0",
  "DerivedVendorReportedEchoSpacing": 0.000580009,
  "DeviceSerialNumber": "66054",
  "DwellTime": 2.1e-06,
  "EchoTime": 0.031,
  "EchoTrainLength": 95,
  "EffectiveEchoSpacing": 0.000580009,
  "FlipAngle": 64,
  "ImageOrientationPatientDICOM": [0.997162, -0.00161039, -0.0752646, -0.0330793, 0.88871, -0.457275],
  "ImageType": [
    "ORIGINAL",
    "PRIMARY",
    "M",
    "ND",
    "MOSAIC"
],
  "InPlanePhaseEncodingDirectionDICOM": "COL",
  "InstitutionAddress": "Chemin_des_Mines_9_Geneve_District_CH_1211",
  "InstitutionName": "Fondation_Campus_Biotech_Geneva",
  "InstitutionalDepartmentName": "Department",
  "MRAcquisitionType": "2D",
  "MagneticFieldStrength": 3,
  "Manufacturer": "Siemens",
  "ManufacturersModelName": "Prisma",
  "Modality": "MR",
  "MultibandAccelerationFactor": 4,
  "PartialFourier": 0.875,
  "PatientPosition": "HFS",
  "PercentPhaseFOV": 100,
  "PhaseEncodingDirection": "j-",
  "PhaseEncodingSteps": 95,
  "PhaseResolution": 1,
  "PixelBandwidth": 2205,
  "ProcedureStepDescription": "J.DRM_Michael",
  "ProtocolName": "Run3_bold_s4_TR1.28",
  "PulseSequenceDetails": "%SiemensSeq%_ep2d_bold",
  "ReceiveCoilActiveElements": "HC1-7;NC1,2",
  "ReceiveCoilName": "HeadNeck_64",
  "ReconMatrixPE": 108,
  "RepetitionTime": 1.28,
  "SAR": 0.0761486,
  "ScanOptions": "PFP_FS",
  "ScanningSequence": "EP",
  "SequenceName": "_epfid2d1_108",
  "SequenceVariant": "SK",
  "SeriesDescription": "Run3_bold_s4_TR1.28",
  "SeriesNumber": 12,
  "ShimSetting": [-1274, -11620, 6467, 462, 205, 128, -45, 51],
  "SliceThickness": 2,
  "SliceTiming": [0.945, 0, 0.63, 0.0775, 0.7075, 0.1575, 0.7875, 0.235, 0.865, 0.3925, 1.0225, 0.4725, 1.1025, 0.55, 1.18, 0.315, 0.945, 0, 0.63, 0.0775, 0.7075, 0.1575, 0.7875, 0.235, 0.865, 0.3925, 1.0225, 0.4725, 1.1025, 0.55, 1.18, 0.315, 0.945, 0, 0.63, 0.0775, 0.7075, 0.1575, 0.7875, 0.235, 0.865, 0.3925, 1.0225, 0.4725, 1.1025, 0.55, 1.18, 0.315, 0.945, 0, 0.63, 0.0775, 0.7075, 0.1575, 0.7875, 0.235, 0.865, 0.3925, 1.0225, 0.4725, 1.1025, 0.55, 1.18, 0.315],
  "SoftwareVersions": "syngo_MR_E11",
  "SpacingBetweenSlices": 2,
  "StationName": "AWP66054",
  "TaskName": "main",
  "TotalReadoutTime": 0.0620609,
  "TxRefAmp": 275.084,
  "dcmmeta_affine": [
    [-1.9850916862487793, -0.06585238128900528, -0.13524949550628662, 109.13760375976562],
    [0.003205870511010289, 1.769190788269043, -0.9169348478317261, -66.5162353515625],
    [-0.14983226358890533, 0.9103166460990906, 1.7722691297531128, -81.94861602783203],
    [0.0, 0.0, 0.0, 1.0]
],
  "dcmmeta_reorient_transform": [
    [0.0, -1.0, 0.0, 107.0],
    [1.0, 0.0, 0.0, 0.0],
    [0.0, 0.0, 1.0, 0.0],
    [0.0, 0.0, 0.0, 1.0]
],
  "dcmmeta_shape": [108, 108, 64, 373],
  "dcmmeta_slice_dim": 2,
  "dcmmeta_version": 0.6,
  "global": {
    "const": {
      "AccessionNumber": "",
      "AcquisitionMatrix": [108, 0, 0, 108],
      "AngioFlag": "N",
      "BitsAllocated": 16,
      "BitsStored": 12,
      "BodyPartExamined": "BRAIN",
      "Columns": 864,
      "EchoNumbers": 1,
      "EchoTime": 31.0,
      "EchoTrainLength": 95,
      "FlipAngle": 64.0,
      "HighBit": 11,
      "ImageOrientationPatient": [0.99716229898323, -0.001610390686, -0.0752645741921, -0.0330793335051, 0.88870974808169, -0.4572753452346],
      "ImagePositionPatient": [-827.56384068892, -790.32945114603, 416.19156844712],
      "ImageType": [
        "ORIGINAL",
        "PRIMARY",
        "M",
        "ND",
        "MOSAIC"
],
      "ImagedNucleus": "1H",
      "ImagingFrequency": 123.257368,
      "InPlanePhaseEncodingDirection": "COL",
      "MRAcquisitionType": "2D",
      "MagneticFieldStrength": 3.0,
      "Manufacturer": "SIEMENS",
      "ManufacturerModelName": "Prisma",
      "Modality": "MR",
      "NumberOfAverages": 1.0,
      "NumberOfPhaseEncodingSteps": 95,
      "PercentPhaseFieldOfView": 100.0,
      "PercentSampling": 100.0,
      "PerformedProcedureStepStartTime": "112113.180000",
      "PhotometricInterpretation": "MONOCHROME2",
      "PixelBandwidth": 2205.0,
      "PixelRepresentation": 0,
      "PixelSpacing": [1.990740776062, 1.990740776062],
      "PositionReferenceIndicator": "",
      "ProtocolName": "Run3_bold_s4_TR1.28",
      "RepetitionTime": 1280.0,
      "Rows": 864,
      "SAR": 0.07614862719262,
      "SamplesPerPixel": 1,
      "ScanOptions": [
        "PFP",
        "FS"
],
      "ScanningSequence": "EP",
      "SequenceName": "*epfid2d1_108",
      "SequenceVariant": "SK",
      "SeriesDescription": "Run3_bold_s4_TR1.28",
      "SeriesNumber": 12,
      "SeriesTime": "122751.742000",
      "SliceLocation": -49.502374793823,
      "SliceThickness": 2.0,
      "SmallestImagePixelValue": 0,
      "SoftwareVersions": "syngo MR E11",
      "SpacingBetweenSlices": 1.9999999538746,
      "SpecificCharacterSet": "ISO_IR 100",
      "StudyID": "1",
      "StudyTime": "112113.119000",
      "TransmitCoilName": "Body",
      "VariableFlipAngleFlag": "N",
      "WindowCenterWidthExplanation": "Algo1",
      "dBdt": 0.0},
    "slices": {}
  },
  "time": {
    "samples": {
      "AcquisitionNumber": [1, 2, 3, 4, 5, 6, 7, 8, 9, 10, 11, 12, 13, 14, 15, 16, 17, 18, 19, 20, 21, 22, 23, 24, 25, 26, 27, 28, 29, 30, 31, 32, 33, 34, 35, 36, 37, 38, 39, 40, 41, 42, 43, 44, 45, 46, 47, 48, 49, 50, 51, 52, 53, 54, 55, 56, 57, 58, 59, 60, 61, 62, 63, 64, 65, 66, 67, 68, 69, 70, 71, 72, 73, 74, 75, 76, 77, 78, 79, 80, 81, 82, 83, 84, 85, 86, 87, 88, 89, 90, 91, 92, 93, 94, 95, 96, 97, 98, 99, 100, 101, 102, 103, 104, 105, 106, 107, 108, 109, 110, 111, 112, 113, 114, 115, 116, 117, 118, 119, 120, 121, 122, 123, 124, 125, 126, 127, 128, 129, 130, 131, 132, 133, 134, 135, 136, 137, 138, 139, 140, 141, 142, 143, 144, 145, 146, 147, 148, 149, 150, 151, 152, 153, 154, 155, 156, 157, 158, 159, 160, 161, 162, 163, 164, 165, 166, 167, 168, 169, 170, 171, 172, 173, 174, 175, 176, 177, 178, 179, 180, 181, 182, 183, 184, 185, 186, 187, 188, 189, 190, 191, 192, 193, 194, 195, 196, 197, 198, 199, 200, 201, 202, 203, 204, 205, 206, 207, 208, 209, 210, 211, 212, 213, 214, 215, 216, 217, 218, 219, 220, 221, 222, 223, 224, 225, 226, 227, 228, 229, 230, 231, 232, 233, 234, 235, 236, 237, 238, 239, 240, 241, 242, 243, 244, 245, 246, 247, 248, 249, 250, 251, 252, 253, 254, 255, 256, 257, 258, 259, 260, 261, 262, 263, 264, 265, 266, 267, 268, 269, 270, 271, 272, 273, 274, 275, 276, 277, 278, 279, 280, 281, 282, 283, 284, 285, 286, 287, 288, 289, 290, 291, 292, 293, 294, 295, 296, 297, 298, 299, 300, 301, 302, 303, 304, 305, 306, 307, 308, 309, 310, 311, 312, 313, 314, 315, 316, 317, 318, 319, 320, 321, 322, 323, 324, 325, 326, 327, 328, 329, 330, 331, 332, 333, 334, 335, 336, 337, 338, 339, 340, 341, 342, 343, 344, 345, 346, 347, 348, 349, 350, 351, 352, 353, 354, 355, 356, 357, 358, 359, 360, 361, 362, 363, 364, 365, 366, 367, 368, 369, 370, 371, 372, 373],
      "AcquisitionTime": ["122720.647500", "122721.927500", "122723.207500", "122724.487500", "122725.767500", "122727.047500", "122728.327500", "122729.607500", "122730.887500", "122732.167500", "122733.447500", "122734.727500", "122736.007500", "122737.287500", "122738.567500", "122739.847500", "122741.127500", "122742.407500", "122743.687500", "122744.967500", "122746.247500", "122747.527500", "122748.807500", "122750.087500", "122751.367500", "122752.647500", "122753.927500", "122755.207500", "122756.487500", "122757.767500", "122759.047500", "122800.327500", "122801.607500", "122802.887500", "122804.167500", "122805.447500", "122806.727500", "122808.007500", "122809.287500", "122810.567500", "122811.847500", "122813.127500", "122814.407500", "122815.687500", "122816.967500", "122818.247500", "122819.527500", "122820.807500", "122822.087500", "122823.367500", "122824.647500", "122825.927500", "122827.207500", "122828.487500", "122829.767500", "122831.047500", "122832.327500", "122833.607500", "122834.887500", "122836.167500", "122837.447500", "122838.727500", "122840.007500", "122841.287500", "122842.567500", "122843.847500", "122845.127500", "122846.407500", "122847.687500", "122848.967500", "122850.247500", "122851.527500", "122852.807500", "122854.087500", "122855.367500", "122856.647500", "122857.927500", "122859.207500", "122900.487500", "122901.767500", "122903.047500", "122904.327500", "122905.607500", "122906.887500", "122908.167500", "122909.447500", "122910.727500", "122912.007500", "122913.287500", "122914.567500", "122915.847500", "122917.127500", "122918.407500", "122919.687500", "122920.967500", "122922.247500", "122923.527500", "122924.807500", "122926.087500", "122927.367500", "122928.647500", "122929.927500", "122931.207500", "122932.487500", "122933.767500", "122935.047500", "122936.327500", "122937.607500", "122938.887500", "122940.167500", "122941.447500", "122942.727500", "122944.007500", "122945.287500", "122946.567500", "122947.847500", "122949.127500", "122950.407500", "122951.687500", "122952.967500", "122954.247500", "122955.527500", "122956.807500", "122958.087500", "122959.367500", "123000.647500", "123001.927500", "123003.207500", "123004.487500", "123005.767500", "123007.047500", "123008.327500", "123009.607500", "123010.887500", "123012.167500", "123013.447500", "123014.727500", "123016.007500", "123017.287500", "123018.567500", "123019.847500", "123021.127500", "123022.407500", "123023.687500", "123024.967500", "123026.247500", "123027.527500", "123028.807500", "123030.087500", "123031.367500", "123032.647500", "123033.927500", "123035.207500", "123036.487500", "123037.767500", "123039.047500", "123040.327500", "123041.607500", "123042.887500", "123044.167500", "123045.447500", "123046.727500", "123048.007500", "123049.287500", "123050.567500", "123051.847500", "123053.127500", "123054.407500", "123055.687500", "123056.967500", "123058.247500", "123059.527500", "123100.807500", "123102.087500", "123103.367500", "123104.647500", "123105.927500", "123107.207500", "123108.487500", "123109.767500", "123111.047500", "123112.327500", "123113.607500", "123114.887500", "123116.167500", "123117.447500", "123118.727500", "123120.007500", "123121.287500", "123122.567500", "123123.847500", "123125.127500", "123126.407500", "123127.687500", "123128.967500", "123130.247500", "123131.527500", "123132.807500", "123134.087500", "123135.367500", "123136.647500", "123137.927500", "123139.207500", "123140.487500", "123141.767500", "123143.047500", "123144.327500", "123145.607500", "123146.887500", "123148.167500", "123149.447500", "123150.727500", "123152.007500", "123153.287500", "123154.567500", "123155.847500", "123157.127500", "123158.407500", "123159.687500", "123200.967500", "123202.247500", "123203.527500", "123204.807500", "123206.087500", "123207.367500", "123208.647500", "123209.927500", "123211.207500", "123212.487500", "123213.767500", "123215.047500", "123216.327500", "123217.607500", "123218.887500", "123220.167500", "123221.447500", "123222.727500", "123224.007500", "123225.287500", "123226.567500", "123227.847500", "123229.127500", "123230.407500", "123231.687500", "123232.967500", "123234.247500", "123235.527500", "123236.807500", "123238.087500", "123239.367500", "123240.647500", "123241.927500", "123243.207500", "123244.487500", "123245.767500", "123247.047500", "123248.327500", "123249.607500", "123250.887500", "123252.167500", "123253.447500", "123254.727500", "123256.007500", "123257.287500", "123258.567500", "123259.847500", "123301.127500", "123302.407500", "123303.687500", "123304.967500", "123306.247500", "123307.527500", "123308.807500", "123310.087500", "123311.367500", "123312.647500", "123313.927500", "123315.207500", "123316.487500", "123317.767500", "123319.047500", "123320.327500", "123321.607500", "123322.887500", "123324.167500", "123325.447500", "123326.727500", "123328.007500", "123329.287500", "123330.567500", "123331.847500", "123333.127500", "123334.407500", "123335.687500", "123336.967500", "123338.247500", "123339.527500", "123340.807500", "123342.087500", "123343.367500", "123344.647500", "123345.927500", "123347.207500", "123348.487500", "123349.767500", "123351.047500", "123352.327500", "123353.607500", "123354.887500", "123356.167500", "123357.447500", "123358.727500", "123400.007500", "123401.287500", "123402.567500", "123403.847500", "123405.127500", "123406.407500", "123407.687500", "123408.967500", "123410.247500", "123411.527500", "123412.807500", "123414.087500", "123415.367500", "123416.647500", "123417.927500", "123419.207500", "123420.487500", "123421.767500", "123423.047500", "123424.327500", "123425.607500", "123426.887500", "123428.167500", "123429.447500", "123430.727500", "123432.007500", "123433.287500", "123434.567500", "123435.847500", "123437.127500", "123438.407500", "123439.687500", "123440.967500", "123442.247500", "123443.527500", "123444.807500", "123446.087500", "123447.367500", "123448.647500", "123449.927500", "123451.207500", "123452.487500", "123453.767500", "123455.047500", "123456.327500", "123457.607500", "123458.887500", "123500.167500", "123501.447500", "123502.727500", "123504.007500", "123505.287500", "123506.567500", "123507.847500", "123509.127500", "123510.407500", "123511.687500", "123512.967500", "123514.247500", "123515.527500", "123516.807500"],
      "ContentTime": ["122751.746000", "122751.750000", "122751.754000", "122751.759000", "122751.762000", "122751.770000", "122751.773000", "122751.776000", "122751.779000", "122751.782000", "122751.786000", "122751.789000", "122751.810000", "122751.814000", "122751.817000", "122751.820000", "122751.823000", "122751.826000", "122751.829000", "122751.832000", "122751.835000", "122751.838000", "122751.842000", "122751.845000", "122831.741000", "122831.744000", "122831.747000", "122831.750000", "122831.753000", "122831.756000", "122831.759000", "122831.762000", "122831.765000", "122831.768000", "122831.771000", "122831.774000", "122831.777000", "122831.780000", "122831.783000", "122831.787000", "122831.789000", "122831.793000", "122831.796000", "122831.799000", "122831.802000", "122831.804000", "122831.807000", "122831.811000", "122831.824000", "122831.827000", "122831.830000", "122831.833000", "122831.836000", "122831.839000", "122831.842000", "122911.741000", "122911.744000", "122911.747000", "122911.750000", "122911.753000", "122911.756000", "122911.759000", "122911.762000", "122911.765000", "122911.768000", "122911.771000", "122911.774000", "122911.777000", "122911.780000", "122911.783000", "122911.786000", "122911.789000", "122911.792000", "122911.795000", "122911.798000", "122911.801000", "122911.804000", "122911.807000", "122911.811000", "122911.815000", "122911.818000", "122911.821000", "122911.824000", "122911.827000", "122911.830000", "122911.840000", "122951.742000", "122951.745000", "122951.748000", "122951.751000", "122951.754000", "122951.758000", "122951.760000", "122951.763000", "122951.766000", "122951.770000", "122951.773000", "122951.776000", "122951.779000", "122951.782000", "122951.785000", "122951.788000", "122951.791000", "122951.794000", "122951.797000", "122951.800000", "122951.803000", "122951.811000", "122951.814000", "122951.817000", "122951.820000", "122951.823000", "122951.826000", "122951.829000", "122951.836000", "122951.839000", "122951.842000", "123031.741000", "123031.744000", "123031.758000", "123031.761000", "123031.764000", "123031.767000", "123031.770000", "123031.773000", "123031.776000", "123031.779000", "123031.782000", "123031.785000", "123031.788000", "123031.791000", "123031.794000", "123031.797000", "123031.800000", "123031.803000", "123031.806000", "123031.809000", "123031.812000", "123031.815000", "123031.818000", "123031.821000", "123031.824000", "123031.827000", "123031.830000", "123031.833000", "123031.836000", "123031.839000", "123031.842000", "123031.845000", "123111.741000", "123111.744000", "123111.747000", "123111.750000", "123111.753000", "123111.756000", "123111.759000", "123111.762000", "123111.765000", "123111.768000", "123111.771000", "123111.774000", "123111.778000", "123111.781000", "123111.783000", "123111.786000", "123111.790000", "123111.793000", "123111.796000", "123111.799000", "123111.802000", "123111.805000", "123111.808000", "123111.810000", "123111.817000", "123111.820000", "123111.823000", "123111.826000", "123111.829000", "123111.832000", "123111.835000", "123151.741000", "123151.744000", "123151.747000", "123151.750000", "123151.754000", "123151.757000", "123151.760000", "123151.763000", "123151.766000", "123151.769000", "123151.772000", "123151.775000", "123151.778000", "123151.781000", "123151.784000", "123151.787000", "123151.790000", "123151.793000", "123151.796000", "123151.799000", "123151.802000", "123151.805000", "123151.810000", "123151.813000", "123151.816000", "123151.819000", "123151.822000", "123151.825000", "123151.828000", "123151.831000", "123151.834000", "123231.741000", "123231.744000", "123231.747000", "123231.750000", "123231.753000", "123231.756000", "123231.759000", "123231.762000", "123231.765000", "123231.768000", "123231.772000", "123231.775000", "123231.778000", "123231.781000", "123231.784000", "123231.787000", "123231.790000", "123231.793000", "123231.796000", "123231.799000", "123231.802000", "123231.805000", "123231.808000", "123231.811000", "123231.814000", "123231.817000", "123231.820000", "123231.823000", "123231.826000", "123231.829000", "123231.837000", "123311.741000", "123311.744000", "123311.747000", "123311.760000", "123311.763000", "123311.766000", "123311.769000", "123311.772000", "123311.775000", "123311.782000", "123311.785000", "123311.788000", "123311.791000", "123311.794000", "123311.797000", "123311.800000", "123311.803000", "123311.806000", "123311.809000", "123311.812000", "123311.815000", "123311.818000", "123311.821000", "123311.825000", "123311.828000", "123311.830000", "123311.833000", "123311.837000", "123311.840000", "123311.843000", "123311.846000", "123311.849000", "123351.741000", "123351.745000", "123351.748000", "123351.751000", "123351.753000", "123351.757000", "123351.760000", "123351.763000", "123351.766000", "123351.769000", "123351.772000", "123351.775000", "123351.778000", "123351.781000", "123351.784000", "123351.787000", "123351.790000", "123351.793000", "123351.796000", "123351.799000", "123351.802000", "123351.805000", "123351.808000", "123351.811000", "123351.814000", "123351.817000", "123351.820000", "123351.823000", "123351.826000", "123351.829000", "123351.832000", "123431.742000", "123431.745000", "123431.748000", "123431.751000", "123431.754000", "123431.757000", "123431.760000", "123431.763000", "123431.767000", "123431.770000", "123431.773000", "123431.776000", "123431.779000", "123431.782000", "123431.785000", "123431.788000", "123431.791000", "123431.794000", "123431.797000", "123431.800000", "123431.803000", "123431.807000", "123431.810000", "123431.813000", "123431.817000", "123431.820000", "123431.823000", "123431.825000", "123431.829000", "123431.832000", "123431.834000", "123451.741000", "123451.744000", "123451.747000", "123451.750000", "123451.753000", "123451.756000", "123451.759000", "123451.762000", "123451.766000", "123451.769000", "123451.772000", "123451.775000", "123451.778000", "123451.781000", "123451.784000", "123451.787000", "123518.385000", "123518.392000", "123518.396000", "123518.400000", "123518.403000", "123518.407000", "123518.410000", "123518.414000", "123518.417000", "123518.420000", "123518.423000", "123518.426000", "123518.429000", "123518.432000", "123518.435000", "123518.439000", "123518.442000", "123518.445000", "123518.448000", "123518.451000", "123518.454000"],
      "InstanceCreationTime": ["122751.746000", "122751.750000", "122751.754000", "122751.759000", "122751.762000", "122751.770000", "122751.773000", "122751.776000", "122751.779000", "122751.782000", "122751.786000", "122751.789000", "122751.810000", "122751.814000", "122751.817000", "122751.820000", "122751.823000", "122751.826000", "122751.829000", "122751.832000", "122751.835000", "122751.838000", "122751.842000", "122751.845000", "122831.741000", "122831.744000", "122831.747000", "122831.750000", "122831.753000", "122831.756000", "122831.759000", "122831.762000", "122831.765000", "122831.768000", "122831.771000", "122831.774000", "122831.777000", "122831.780000", "122831.783000", "122831.787000", "122831.789000", "122831.793000", "122831.796000", "122831.799000", "122831.802000", "122831.804000", "122831.807000", "122831.811000", "122831.824000", "122831.827000", "122831.830000", "122831.833000", "122831.836000", "122831.839000", "122831.842000", "122911.741000", "122911.744000", "122911.747000", "122911.750000", "122911.753000", "122911.756000", "122911.759000", "122911.762000", "122911.765000", "122911.768000", "122911.771000", "122911.774000", "122911.777000", "122911.780000", "122911.783000", "122911.786000", "122911.789000", "122911.792000", "122911.795000", "122911.798000", "122911.801000", "122911.804000", "122911.807000", "122911.811000", "122911.815000", "122911.818000", "122911.821000", "122911.824000", "122911.827000", "122911.830000", "122911.840000", "122951.742000", "122951.745000", "122951.748000", "122951.751000", "122951.754000", "122951.758000", "122951.760000", "122951.763000", "122951.766000", "122951.770000", "122951.773000", "122951.776000", "122951.779000", "122951.782000", "122951.785000", "122951.788000", "122951.791000", "122951.794000", "122951.797000", "122951.800000", "122951.803000", "122951.811000", "122951.814000", "122951.817000", "122951.820000", "122951.823000", "122951.826000", "122951.829000", "122951.836000", "122951.839000", "122951.842000", "123031.741000", "123031.744000", "123031.758000", "123031.761000", "123031.764000", "123031.767000", "123031.770000", "123031.773000", "123031.776000", "123031.779000", "123031.782000", "123031.785000", "123031.788000", "123031.791000", "123031.794000", "123031.797000", "123031.800000", "123031.803000", "123031.806000", "123031.809000", "123031.812000", "123031.815000", "123031.818000", "123031.821000", "123031.824000", "123031.827000", "123031.830000", "123031.833000", "123031.836000", "123031.839000", "123031.842000", "123031.845000", "123111.741000", "123111.744000", "123111.747000", "123111.750000", "123111.753000", "123111.756000", "123111.759000", "123111.762000", "123111.765000", "123111.768000", "123111.771000", "123111.774000", "123111.778000", "123111.781000", "123111.783000", "123111.786000", "123111.790000", "123111.793000", "123111.796000", "123111.799000", "123111.802000", "123111.805000", "123111.808000", "123111.810000", "123111.817000", "123111.820000", "123111.823000", "123111.826000", "123111.829000", "123111.832000", "123111.835000", "123151.741000", "123151.744000", "123151.747000", "123151.750000", "123151.754000", "123151.757000", "123151.760000", "123151.763000", "123151.766000", "123151.769000", "123151.772000", "123151.775000", "123151.778000", "123151.781000", "123151.784000", "123151.787000", "123151.790000", "123151.793000", "123151.796000", "123151.799000", "123151.802000", "123151.805000", "123151.810000", "123151.813000", "123151.816000", "123151.819000", "123151.822000", "123151.825000", "123151.828000", "123151.831000", "123151.834000", "123231.741000", "123231.744000", "123231.747000", "123231.750000", "123231.753000", "123231.756000", "123231.759000", "123231.762000", "123231.765000", "123231.768000", "123231.772000", "123231.775000", "123231.778000", "123231.781000", "123231.784000", "123231.787000", "123231.790000", "123231.793000", "123231.796000", "123231.799000", "123231.802000", "123231.805000", "123231.808000", "123231.811000", "123231.814000", "123231.817000", "123231.820000", "123231.823000", "123231.826000", "123231.829000", "123231.837000", "123311.741000", "123311.744000", "123311.747000", "123311.760000", "123311.763000", "123311.766000", "123311.769000", "123311.772000", "123311.775000", "123311.782000", "123311.785000", "123311.788000", "123311.791000", "123311.794000", "123311.797000", "123311.800000", "123311.803000", "123311.806000", "123311.809000", "123311.812000", "123311.815000", "123311.818000", "123311.821000", "123311.825000", "123311.828000", "123311.830000", "123311.833000", "123311.837000", "123311.840000", "123311.843000", "123311.846000", "123311.849000", "123351.741000", "123351.745000", "123351.748000", "123351.751000", "123351.753000", "123351.757000", "123351.760000", "123351.763000", "123351.766000", "123351.769000", "123351.772000", "123351.775000", "123351.778000", "123351.781000", "123351.784000", "123351.787000", "123351.790000", "123351.793000", "123351.796000", "123351.799000", "123351.802000", "123351.805000", "123351.808000", "123351.811000", "123351.814000", "123351.817000", "123351.820000", "123351.823000", "123351.826000", "123351.829000", "123351.832000", "123431.742000", "123431.745000", "123431.748000", "123431.751000", "123431.754000", "123431.757000", "123431.760000", "123431.763000", "123431.767000", "123431.770000", "123431.773000", "123431.776000", "123431.779000", "123431.782000", "123431.785000", "123431.788000", "123431.791000", "123431.794000", "123431.797000", "123431.800000", "123431.803000", "123431.807000", "123431.810000", "123431.813000", "123431.817000", "123431.820000", "123431.823000", "123431.825000", "123431.829000", "123431.832000", "123431.834000", "123451.741000", "123451.744000", "123451.747000", "123451.750000", "123451.753000", "123451.756000", "123451.759000", "123451.762000", "123451.766000", "123451.769000", "123451.772000", "123451.775000", "123451.778000", "123451.781000", "123451.784000", "123451.787000", "123518.385000", "123518.392000", "123518.396000", "123518.400000", "123518.403000", "123518.407000", "123518.410000", "123518.414000", "123518.417000", "123518.420000", "123518.423000", "123518.426000", "123518.429000", "123518.432000", "123518.435000", "123518.439000", "123518.442000", "123518.445000", "123518.448000", "123518.451000", "123518.454000"],
      "InstanceNumber": [1, 2, 3, 4, 5, 6, 7, 8, 9, 10, 11, 12, 13, 14, 15, 16, 17, 18, 19, 20, 21, 22, 23, 24, 25, 26, 27, 28, 29, 30, 31, 32, 33, 34, 35, 36, 37, 38, 39, 40, 41, 42, 43, 44, 45, 46, 47, 48, 49, 50, 51, 52, 53, 54, 55, 56, 57, 58, 59, 60, 61, 62, 63, 64, 65, 66, 67, 68, 69, 70, 71, 72, 73, 74, 75, 76, 77, 78, 79, 80, 81, 82, 83, 84, 85, 86, 87, 88, 89, 90, 91, 92, 93, 94, 95, 96, 97, 98, 99, 100, 101, 102, 103, 104, 105, 106, 107, 108, 109, 110, 111, 112, 113, 114, 115, 116, 117, 118, 119, 120, 121, 122, 123, 124, 125, 126, 127, 128, 129, 130, 131, 132, 133, 134, 135, 136, 137, 138, 139, 140, 141, 142, 143, 144, 145, 146, 147, 148, 149, 150, 151, 152, 153, 154, 155, 156, 157, 158, 159, 160, 161, 162, 163, 164, 165, 166, 167, 168, 169, 170, 171, 172, 173, 174, 175, 176, 177, 178, 179, 180, 181, 182, 183, 184, 185, 186, 187, 188, 189, 190, 191, 192, 193, 194, 195, 196, 197, 198, 199, 200, 201, 202, 203, 204, 205, 206, 207, 208, 209, 210, 211, 212, 213, 214, 215, 216, 217, 218, 219, 220, 221, 222, 223, 224, 225, 226, 227, 228, 229, 230, 231, 232, 233, 234, 235, 236, 237, 238, 239, 240, 241, 242, 243, 244, 245, 246, 247, 248, 249, 250, 251, 252, 253, 254, 255, 256, 257, 258, 259, 260, 261, 262, 263, 264, 265, 266, 267, 268, 269, 270, 271, 272, 273, 274, 275, 276, 277, 278, 279, 280, 281, 282, 283, 284, 285, 286, 287, 288, 289, 290, 291, 292, 293, 294, 295, 296, 297, 298, 299, 300, 301, 302, 303, 304, 305, 306, 307, 308, 309, 310, 311, 312, 313, 314, 315, 316, 317, 318, 319, 320, 321, 322, 323, 324, 325, 326, 327, 328, 329, 330, 331, 332, 333, 334, 335, 336, 337, 338, 339, 340, 341, 342, 343, 344, 345, 346, 347, 348, 349, 350, 351, 352, 353, 354, 355, 356, 357, 358, 359, 360, 361, 362, 363, 364, 365, 366, 367, 368, 369, 370, 371, 372, 373],
