{
  "AcquisitionMatrixPE": 108,
  "AcquisitionNumber": 1,
  "AcquisitionTime": "12:51:49.837500",
  "BandwidthPerPixelPhaseEncode": 15.964,
  "BaseResolution": 108,
  "BodyPartExamined": "BRAIN",
  "ConsistencyInfo": "N4_VE11C_LATEST_20160120",
  "ConversionSoftware": "dcm2niix",
  "ConversionSoftwareVersion": "v1.0.20180622 GCC6.3.0",
  "DerivedVendorReportedEchoSpacing": 0.000580009,
  "DeviceSerialNumber": "66054",
  "DwellTime": 2.1e-06,
  "EchoTime": 0.031,
  "EchoTrainLength": 95,
  "EffectiveEchoSpacing": 0.000580009,
  "FlipAngle": 64,
  "ImageOrientationPatientDICOM": [0.997162, -0.00161039, -0.0752646, -0.0330793, 0.88871, -0.457275],
  "ImageType": [
    "ORIGINAL",
    "PRIMARY",
    "M",
    "ND",
    "MOSAIC"
],
  "InPlanePhaseEncodingDirectionDICOM": "COL",
  "InstitutionAddress": "Chemin_des_Mines_9_Geneve_District_CH_1211",
  "InstitutionName": "Fondation_Campus_Biotech_Geneva",
  "InstitutionalDepartmentName": "Department",
  "MRAcquisitionType": "2D",
  "MagneticFieldStrength": 3,
  "Manufacturer": "Siemens",
  "ManufacturersModelName": "Prisma",
  "Modality": "MR",
  "MultibandAccelerationFactor": 4,
  "PartialFourier": 0.875,
  "PatientPosition": "HFS",
  "PercentPhaseFOV": 100,
  "PhaseEncodingDirection": "j-",
  "PhaseEncodingSteps": 95,
  "PhaseResolution": 1,
  "PixelBandwidth": 2205,
  "ProcedureStepDescription": "J.DRM_Michael",
  "ProtocolName": "Run5_bold_s4_TR1.28",
  "PulseSequenceDetails": "%SiemensSeq%_ep2d_bold",
  "ReceiveCoilActiveElements": "HC1-7;NC1,2",
  "ReceiveCoilName": "HeadNeck_64",
  "ReconMatrixPE": 108,
  "RepetitionTime": 1.28,
  "SAR": 0.0761486,
  "ScanOptions": "PFP_FS",
  "ScanningSequence": "EP",
  "SequenceName": "_epfid2d1_108",
  "SequenceVariant": "SK",
  "SeriesDescription": "Run5_bold_s4_TR1.28",
  "SeriesNumber": 15,
  "ShimSetting": [-1274, -11620, 6467, 462, 205, 128, -45, 51],
  "SliceThickness": 2,
  "SliceTiming": [0.945, 0, 0.63, 0.0775, 0.7075, 0.1575, 0.7875, 0.235, 0.865, 0.3925, 1.0225, 0.4725, 1.1025, 0.55, 1.18, 0.315, 0.945, 0, 0.63, 0.0775, 0.7075, 0.1575, 0.7875, 0.235, 0.865, 0.3925, 1.0225, 0.4725, 1.1025, 0.55, 1.18, 0.315, 0.945, 0, 0.63, 0.0775, 0.7075, 0.1575, 0.7875, 0.235, 0.865, 0.3925, 1.0225, 0.4725, 1.1025, 0.55, 1.18, 0.315, 0.945, 0, 0.63, 0.0775, 0.7075, 0.1575, 0.7875, 0.235, 0.865, 0.3925, 1.0225, 0.4725, 1.1025, 0.55, 1.18, 0.315],
  "SoftwareVersions": "syngo_MR_E11",
  "SpacingBetweenSlices": 2,
  "StationName": "AWP66054",
  "TaskName": "main",
  "TotalReadoutTime": 0.0620609,
  "TxRefAmp": 275.084,
  "dcmmeta_affine": [
    [-1.9850916862487793, -0.06585238128900528, -0.13524949550628662, 109.13760375976562],
    [0.003205870511010289, 1.769190788269043, -0.9169348478317261, -66.5162353515625],
    [-0.14983226358890533, 0.9103166460990906, 1.7722691297531128, -81.94861602783203],
    [0.0, 0.0, 0.0, 1.0]
],
  "dcmmeta_reorient_transform": [
    [0.0, -1.0, 0.0, 107.0],
    [1.0, 0.0, 0.0, 0.0],
    [0.0, 0.0, 1.0, 0.0],
    [0.0, 0.0, 0.0, 1.0]
],
  "dcmmeta_shape": [108, 108, 64, 373],
  "dcmmeta_slice_dim": 2,
  "dcmmeta_version": 0.6,
  "global": {
    "const": {
      "AccessionNumber": "",
      "AcquisitionMatrix": [108, 0, 0, 108],
      "AngioFlag": "N",
      "BitsAllocated": 16,
      "BitsStored": 12,
      "BodyPartExamined": "BRAIN",
      "Columns": 864,
      "EchoNumbers": 1,
      "EchoTime": 31.0,
      "EchoTrainLength": 95,
      "FlipAngle": 64.0,
      "HighBit": 11,
      "ImageOrientationPatient": [0.99716229898323, -0.001610390686, -0.0752645741921, -0.0330793335051, 0.88870974808169, -0.4572753452346],
      "ImagePositionPatient": [-827.56384068892, -790.32945114603, 416.19156844712],
      "ImageType": [
        "ORIGINAL",
        "PRIMARY",
        "M",
        "ND",
        "MOSAIC"
],
      "ImagedNucleus": "1H",
      "ImagingFrequency": 123.257382,
      "InPlanePhaseEncodingDirection": "COL",
      "MRAcquisitionType": "2D",
      "MagneticFieldStrength": 3.0,
      "Manufacturer": "SIEMENS",
      "ManufacturerModelName": "Prisma",
      "Modality": "MR",
      "NumberOfAverages": 1.0,
      "NumberOfPhaseEncodingSteps": 95,
      "PercentPhaseFieldOfView": 100.0,
      "PercentSampling": 100.0,
      "PerformedProcedureStepStartTime": "112113.180000",
      "PhotometricInterpretation": "MONOCHROME2",
      "PixelBandwidth": 2205.0,
      "PixelRepresentation": 0,
      "PixelSpacing": [1.990740776062, 1.990740776062],
      "PositionReferenceIndicator": "",
      "ProtocolName": "Run5_bold_s4_TR1.28",
      "RepetitionTime": 1280.0,
      "Rows": 864,
      "SAR": 0.07614862719262,
      "SamplesPerPixel": 1,
      "ScanOptions": [
        "PFP",
        "FS"
],
      "ScanningSequence": "EP",
      "SequenceName": "*epfid2d1_108",
      "SequenceVariant": "SK",
      "SeriesDescription": "Run5_bold_s4_TR1.28",
      "SeriesNumber": 15,
      "SeriesTime": "125231.742000",
      "SliceLocation": -49.502374793823,
      "SliceThickness": 2.0,
      "SmallestImagePixelValue": 0,
      "SoftwareVersions": "syngo MR E11",
      "SpacingBetweenSlices": 1.9999999538746,
      "SpecificCharacterSet": "ISO_IR 100",
      "StudyID": "1",
      "StudyTime": "112113.119000",
      "TransmitCoilName": "Body",
      "VariableFlipAngleFlag": "N",
      "WindowCenterWidthExplanation": "Algo1",
      "dBdt": 0.0},
    "slices": {}
  },
  "time": {
    "samples": {
      "AcquisitionNumber": [1, 2, 3, 4, 5, 6, 7, 8, 9, 10, 11, 12, 13, 14, 15, 16, 17, 18, 19, 20, 21, 22, 23, 24, 25, 26, 27, 28, 29, 30, 31, 32, 33, 34, 35, 36, 37, 38, 39, 40, 41, 42, 43, 44, 45, 46, 47, 48, 49, 50, 51, 52, 53, 54, 55, 56, 57, 58, 59, 60, 61, 62, 63, 64, 65, 66, 67, 68, 69, 70, 71, 72, 73, 74, 75, 76, 77, 78, 79, 80, 81, 82, 83, 84, 85, 86, 87, 88, 89, 90, 91, 92, 93, 94, 95, 96, 97, 98, 99, 100, 101, 102, 103, 104, 105, 106, 107, 108, 109, 110, 111, 112, 113, 114, 115, 116, 117, 118, 119, 120, 121, 122, 123, 124, 125, 126, 127, 128, 129, 130, 131, 132, 133, 134, 135, 136, 137, 138, 139, 140, 141, 142, 143, 144, 145, 146, 147, 148, 149, 150, 151, 152, 153, 154, 155, 156, 157, 158, 159, 160, 161, 162, 163, 164, 165, 166, 167, 168, 169, 170, 171, 172, 173, 174, 175, 176, 177, 178, 179, 180, 181, 182, 183, 184, 185, 186, 187, 188, 189, 190, 191, 192, 193, 194, 195, 196, 197, 198, 199, 200, 201, 202, 203, 204, 205, 206, 207, 208, 209, 210, 211, 212, 213, 214, 215, 216, 217, 218, 219, 220, 221, 222, 223, 224, 225, 226, 227, 228, 229, 230, 231, 232, 233, 234, 235, 236, 237, 238, 239, 240, 241, 242, 243, 244, 245, 246, 247, 248, 249, 250, 251, 252, 253, 254, 255, 256, 257, 258, 259, 260, 261, 262, 263, 264, 265, 266, 267, 268, 269, 270, 271, 272, 273, 274, 275, 276, 277, 278, 279, 280, 281, 282, 283, 284, 285, 286, 287, 288, 289, 290, 291, 292, 293, 294, 295, 296, 297, 298, 299, 300, 301, 302, 303, 304, 305, 306, 307, 308, 309, 310, 311, 312, 313, 314, 315, 316, 317, 318, 319, 320, 321, 322, 323, 324, 325, 326, 327, 328, 329, 330, 331, 332, 333, 334, 335, 336, 337, 338, 339, 340, 341, 342, 343, 344, 345, 346, 347, 348, 349, 350, 351, 352, 353, 354, 355, 356, 357, 358, 359, 360, 361, 362, 363, 364, 365, 366, 367, 368, 369, 370, 371, 372, 373],
      "AcquisitionTime": ["125149.837500", "125151.117500", "125152.397500", "125153.677500", "125154.957500", "125156.237500", "125157.517500", "125158.797500", "125200.077500", "125201.357500", "125202.637500", "125203.917500", "125205.197500", "125206.477500", "125207.757500", "125209.037500", "125210.317500", "125211.597500", "125212.877500", "125214.157500", "125215.437500", "125216.717500", "125217.997500", "125219.277500", "125220.557500", "125221.837500", "125223.117500", "125224.397500", "125225.677500", "125226.957500", "125228.237500", "125229.517500", "125230.797500", "125232.077500", "125233.357500", "125234.637500", "125235.917500", "125237.197500", "125238.477500", "125239.757500", "125241.037500", "125242.317500", "125243.597500", "125244.877500", "125246.157500", "125247.437500", "125248.717500", "125249.997500", "125251.277500", "125252.557500", "125253.837500", "125255.117500", "125256.397500", "125257.677500", "125258.957500", "125300.237500", "125301.517500", "125302.797500", "125304.077500", "125305.357500", "125306.637500", "125307.917500", "125309.197500", "125310.477500", "125311.757500", "125313.037500", "125314.317500", "125315.597500", "125316.877500", "125318.157500", "125319.437500", "125320.717500", "125321.997500", "125323.277500", "125324.557500", "125325.837500", "125327.117500", "125328.397500", "125329.677500", "125330.957500", "125332.237500", "125333.517500", "125334.797500", "125336.077500", "125337.357500", "125338.637500", "125339.917500", "125341.197500", "125342.477500", "125343.757500", "125345.037500", "125346.317500", "125347.597500", "125348.877500", "125350.157500", "125351.437500", "125352.717500", "125353.997500", "125355.277500", "125356.557500", "125357.837500", "125359.117500", "125400.397500", "125401.677500", "125402.957500", "125404.237500", "125405.517500", "125406.797500", "125408.077500", "125409.357500", "125410.637500", "125411.917500", "125413.197500", "125414.477500", "125415.757500", "125417.037500", "125418.317500", "125419.597500", "125420.877500", "125422.157500", "125423.437500", "125424.717500", "125425.997500", "125427.277500", "125428.557500", "125429.837500", "125431.117500", "125432.397500", "125433.677500", "125434.957500", "125436.237500", "125437.517500", "125438.797500", "125440.077500", "125441.357500", "125442.637500", "125443.917500", "125445.197500", "125446.477500", "125447.757500", "125449.037500", "125450.317500", "125451.597500", "125452.877500", "125454.157500", "125455.437500", "125456.717500", "125457.997500", "125459.277500", "125500.557500", "125501.837500", "125503.117500", "125504.397500", "125505.677500", "125506.957500", "125508.237500", "125509.517500", "125510.797500", "125512.077500", "125513.357500", "125514.637500", "125515.917500", "125517.197500", "125518.477500", "125519.757500", "125521.037500", "125522.317500", "125523.597500", "125524.877500", "125526.157500", "125527.437500", "125528.717500", "125529.997500", "125531.277500", "125532.557500", "125533.837500", "125535.117500", "125536.397500", "125537.677500", "125538.957500", "125540.237500", "125541.517500", "125542.797500", "125544.077500", "125545.357500", "125546.637500", "125547.917500", "125549.197500", "125550.477500", "125551.757500", "125553.037500", "125554.317500", "125555.597500", "125556.877500", "125558.157500", "125559.437500", "125600.717500", "125601.997500", "125603.277500", "125604.557500", "125605.837500", "125607.117500", "125608.397500", "125609.677500", "125610.957500", "125612.237500", "125613.517500", "125614.797500", "125616.077500", "125617.357500", "125618.637500", "125619.917500", "125621.197500", "125622.477500", "125623.757500", "125625.037500", "125626.317500", "125627.597500", "125628.877500", "125630.157500", "125631.437500", "125632.717500", "125633.997500", "125635.277500", "125636.557500", "125637.837500", "125639.117500", "125640.397500", "125641.677500", "125642.957500", "125644.237500", "125645.517500", "125646.797500", "125648.077500", "125649.357500", "125650.637500", "125651.917500", "125653.197500", "125654.477500", "125655.757500", "125657.037500", "125658.317500", "125659.597500", "125700.877500", "125702.157500", "125703.437500", "125704.717500", "125705.997500", "125707.277500", "125708.557500", "125709.837500", "125711.117500", "125712.397500", "125713.677500", "125714.957500", "125716.237500", "125717.517500", "125718.797500", "125720.077500", "125721.357500", "125722.637500", "125723.917500", "125725.197500", "125726.477500", "125727.757500", "125729.037500", "125730.317500", "125731.597500", "125732.877500", "125734.157500", "125735.437500", "125736.717500", "125737.997500", "125739.277500", "125740.557500", "125741.837500", "125743.117500", "125744.397500", "125745.677500", "125746.957500", "125748.237500", "125749.517500", "125750.797500", "125752.077500", "125753.357500", "125754.637500", "125755.917500", "125757.197500", "125758.477500", "125759.757500", "125801.037500", "125802.317500", "125803.597500", "125804.877500", "125806.157500", "125807.437500", "125808.717500", "125809.997500", "125811.277500", "125812.557500", "125813.837500", "125815.117500", "125816.397500", "125817.677500", "125818.957500", "125820.237500", "125821.517500", "125822.797500", "125824.077500", "125825.357500", "125826.637500", "125827.917500", "125829.197500", "125830.477500", "125831.757500", "125833.037500", "125834.317500", "125835.597500", "125836.877500", "125838.157500", "125839.437500", "125840.717500", "125841.997500", "125843.277500", "125844.557500", "125845.837500", "125847.117500", "125848.397500", "125849.677500", "125850.957500", "125852.237500", "125853.517500", "125854.797500", "125856.077500", "125857.357500", "125858.637500", "125859.917500", "125901.197500", "125902.477500", "125903.757500", "125905.037500", "125906.317500", "125907.597500", "125908.877500", "125910.157500", "125911.437500", "125912.717500", "125913.997500", "125915.277500", "125916.557500", "125917.837500", "125919.117500", "125920.397500", "125921.677500", "125922.957500", "125924.237500", "125925.517500", "125926.797500", "125928.077500", "125929.357500", "125930.637500", "125931.917500", "125933.197500", "125934.477500", "125935.757500", "125937.037500", "125938.317500", "125939.597500", "125940.877500", "125942.157500", "125943.437500", "125944.717500", "125945.997500"],
      "ContentTime": ["125231.746000", "125231.749000", "125231.753000", "125231.774000", "125231.777000", "125231.780000", "125231.783000", "125231.786000", "125231.789000", "125231.792000", "125231.795000", "125231.798000", "125231.801000", "125231.804000", "125231.807000", "125231.810000", "125231.813000", "125231.816000", "125231.819000", "125231.822000", "125231.825000", "125231.828000", "125231.831000", "125231.834000", "125231.837000", "125231.843000", "125231.846000", "125231.849000", "125231.852000", "125231.855000", "125231.858000", "125231.861000", "125311.742000", "125311.745000", "125311.748000", "125311.751000", "125311.754000", "125311.757000", "125311.760000", "125311.763000", "125311.766000", "125311.769000", "125311.772000", "125311.775000", "125311.778000", "125311.781000", "125311.784000", "125311.787000", "125311.790000", "125311.793000", "125311.796000", "125311.799000", "125311.802000", "125311.806000", "125311.808000", "125311.812000", "125311.814000", "125311.818000", "125311.820000", "125311.823000", "125311.826000", "125311.829000", "125311.832000", "125311.835000", "125351.741000", "125351.744000", "125351.747000", "125351.750000", "125351.753000", "125351.756000", "125351.759000", "125351.762000", "125351.765000", "125351.768000", "125351.771000", "125351.775000", "125351.777000", "125351.780000", "125351.783000", "125351.786000", "125351.789000", "125351.792000", "125351.795000", "125351.798000", "125351.801000", "125351.804000", "125351.807000", "125351.811000", "125351.813000", "125351.816000", "125351.819000", "125351.822000", "125351.825000", "125351.828000", "125351.831000", "125431.741000", "125431.744000", "125431.747000", "125431.751000", "125431.754000", "125431.757000", "125431.760000", "125431.763000", "125431.766000", "125431.770000", "125431.773000", "125431.776000", "125431.779000", "125431.782000", "125431.792000", "125431.795000", "125431.798000", "125431.818000", "125431.825000", "125431.828000", "125431.831000", "125431.834000", "125431.838000", "125431.841000", "125431.844000", "125431.847000", "125431.850000", "125431.853000", "125431.856000", "125431.859000", "125431.862000", "125511.742000", "125511.745000", "125511.748000", "125511.751000", "125511.754000", "125511.758000", "125511.761000", "125511.764000", "125511.767000", "125511.770000", "125511.773000", "125511.776000", "125511.779000", "125511.782000", "125511.785000", "125511.788000", "125511.791000", "125511.794000", "125511.797000", "125511.800000", "125511.803000", "125511.806000", "125511.809000", "125511.812000", "125511.815000", "125511.818000", "125511.821000", "125511.824000", "125511.827000", "125511.830000", "125511.833000", "125551.741000", "125551.744000", "125551.747000", "125551.750000", "125551.753000", "125551.756000", "125551.760000", "125551.763000", "125551.766000", "125551.769000", "125551.772000", "125551.775000", "125551.778000", "125551.781000", "125551.784000", "125551.787000", "125551.790000", "125551.793000", "125551.796000", "125551.799000", "125551.802000", "125551.805000", "125551.808000", "125551.811000", "125551.823000", "125551.826000", "125551.829000", "125551.832000", "125551.835000", "125551.838000", "125551.841000", "125551.844000", "125631.741000", "125631.744000", "125631.747000", "125631.750000", "125631.754000", "125631.757000", "125631.760000", "125631.762000", "125631.766000", "125631.769000", "125631.772000", "125631.775000", "125631.778000", "125631.781000", "125631.784000", "125631.787000", "125631.790000", "125631.793000", "125631.796000", "125631.799000", "125631.803000", "125631.806000", "125631.809000", "125631.812000", "125631.815000", "125631.836000", "125631.839000", "125631.841000", "125631.845000", "125631.848000", "125631.851000", "125711.741000", "125711.744000", "125711.747000", "125711.750000", "125711.753000", "125711.756000", "125711.759000", "125711.763000", "125711.766000", "125711.770000", "125711.773000", "125711.776000", "125711.779000", "125711.782000", "125711.785000", "125711.798000", "125711.801000", "125711.804000", "125711.807000", "125711.810000", "125711.813000", "125711.816000", "125711.819000", "125711.822000", "125711.825000", "125711.828000", "125711.831000", "125711.835000", "125711.838000", "125711.841000", "125711.844000", "125751.742000", "125751.745000", "125751.749000", "125751.752000", "125751.755000", "125751.758000", "125751.761000", "125751.764000", "125751.767000", "125751.770000", "125751.773000", "125751.776000", "125751.779000", "125751.782000", "125751.785000", "125751.788000", "125751.791000", "125751.794000", "125751.797000", "125751.800000", "125751.803000", "125751.806000", "125751.810000", "125751.813000", "125751.816000", "125751.819000", "125751.822000", "125751.825000", "125751.828000", "125751.831000", "125751.834000", "125831.741000", "125831.744000", "125831.747000", "125831.751000", "125831.754000", "125831.757000", "125831.760000", "125831.763000", "125831.774000", "125831.777000", "125831.780000", "125831.783000", "125831.786000", "125831.789000", "125831.792000", "125831.795000", "125831.798000", "125831.818000", "125831.822000", "125831.825000", "125831.828000", "125831.831000", "125831.834000", "125831.837000", "125831.840000", "125831.843000", "125831.846000", "125831.850000", "125831.853000", "125831.856000", "125831.859000", "125831.862000", "125911.741000", "125911.744000", "125911.748000", "125911.751000", "125911.753000", "125911.757000", "125911.760000", "125911.763000", "125911.766000", "125911.769000", "125911.772000", "125911.775000", "125911.778000", "125911.781000", "125911.784000", "125911.787000", "125911.790000", "125911.793000", "125911.796000", "125911.799000", "125911.802000", "125911.805000", "125911.808000", "125911.811000", "125911.814000", "125911.817000", "125911.820000", "125911.823000", "125911.826000", "125911.829000", "125911.832000", "125947.175000", "125947.179000", "125947.182000", "125947.186000", "125947.189000", "125947.192000", "125947.196000", "125947.199000", "125947.202000", "125947.205000", "125947.208000", "125947.211000", "125947.214000", "125947.217000", "125947.220000", "125947.223000", "125947.226000", "125947.229000", "125947.233000", "125947.236000", "125947.239000", "125947.242000", "125947.245000", "125947.248000", "125947.251000", "125947.254000", "125947.257000", "125947.260000"],
      "InstanceCreationTime": ["125231.746000", "125231.749000", "125231.753000", "125231.774000", "125231.777000", "125231.780000", "125231.783000", "125231.786000", "125231.789000", "125231.792000", "125231.795000", "125231.798000", "125231.801000", "125231.804000", "125231.807000", "125231.810000", "125231.813000", "125231.816000", "125231.819000", "125231.822000", "125231.825000", "125231.828000", "125231.831000", "125231.834000", "125231.837000", "125231.843000", "125231.846000", "125231.849000", "125231.852000", "125231.855000", "125231.858000", "125231.861000", "125311.742000", "125311.745000", "125311.748000", "125311.751000", "125311.754000", "125311.757000", "125311.760000", "125311.763000", "125311.766000", "125311.769000", "125311.772000", "125311.775000", "125311.778000", "125311.781000", "125311.784000", "125311.787000", "125311.790000", "125311.793000", "125311.796000", "125311.799000", "125311.802000", "125311.806000", "125311.808000", "125311.812000", "125311.814000", "125311.818000", "125311.820000", "125311.823000", "125311.826000", "125311.829000", "125311.832000", "125311.835000", "125351.741000", "125351.744000", "125351.747000", "125351.750000", "125351.753000", "125351.756000", "125351.759000", "125351.762000", "125351.765000", "125351.768000", "125351.771000", "125351.775000", "125351.777000", "125351.780000", "125351.783000", "125351.786000", "125351.789000", "125351.792000", "125351.795000", "125351.798000", "125351.801000", "125351.804000", "125351.807000", "125351.811000", "125351.813000", "125351.816000", "125351.819000", "125351.822000", "125351.825000", "125351.828000", "125351.831000", "125431.741000", "125431.744000", "125431.747000", "125431.751000", "125431.754000", "125431.757000", "125431.760000", "125431.763000", "125431.766000", "125431.770000", "125431.773000", "125431.776000", "125431.779000", "125431.782000", "125431.792000", "125431.795000", "125431.798000", "125431.818000", "125431.825000", "125431.828000", "125431.831000", "125431.834000", "125431.838000", "125431.841000", "125431.844000", "125431.847000", "125431.850000", "125431.853000", "125431.856000", "125431.859000", "125431.862000", "125511.742000", "125511.745000", "125511.748000", "125511.751000", "125511.754000", "125511.758000", "125511.761000", "125511.764000", "125511.767000", "125511.770000", "125511.773000", "125511.776000", "125511.779000", "125511.782000", "125511.785000", "125511.788000", "125511.791000", "125511.794000", "125511.797000", "125511.800000", "125511.803000", "125511.806000", "125511.809000", "125511.812000", "125511.815000", "125511.818000", "125511.821000", "125511.824000", "125511.827000", "125511.830000", "125511.833000", "125551.741000", "125551.744000", "125551.747000", "125551.750000", "125551.753000", "125551.756000", "125551.760000", "125551.763000", "125551.766000", "125551.769000", "125551.772000", "125551.775000", "125551.778000", "125551.781000", "125551.784000", "125551.787000", "125551.790000", "125551.793000", "125551.796000", "125551.799000", "125551.802000", "125551.805000", "125551.808000", "125551.811000", "125551.823000", "125551.826000", "125551.829000", "125551.832000", "125551.835000", "125551.838000", "125551.841000", "125551.844000", "125631.741000", "125631.744000", "125631.747000", "125631.750000", "125631.754000", "125631.757000", "125631.760000", "125631.762000", "125631.766000", "125631.769000", "125631.772000", "125631.775000", "125631.778000", "125631.781000", "125631.784000", "125631.787000", "125631.790000", "125631.793000", "125631.796000", "125631.799000", "125631.803000", "125631.806000", "125631.809000", "125631.812000", "125631.815000", "125631.836000", "125631.839000", "125631.841000", "125631.845000", "125631.848000", "125631.851000", "125711.741000", "125711.744000", "125711.747000", "125711.750000", "125711.753000", "125711.756000", "125711.759000", "125711.763000", "125711.766000", "125711.770000", "125711.773000", "125711.776000", "125711.779000", "125711.782000", "125711.785000", "125711.798000", "125711.801000", "125711.804000", "125711.807000", "125711.810000", "125711.813000", "125711.816000", "125711.819000", "125711.822000", "125711.825000", "125711.828000", "125711.831000", "125711.835000", "125711.838000", "125711.841000", "125711.844000", "125751.742000", "125751.745000", "125751.749000", "125751.752000", "125751.755000", "125751.758000", "125751.761000", "125751.764000", "125751.767000", "125751.770000", "125751.773000", "125751.776000", "125751.779000", "125751.782000", "125751.785000", "125751.788000", "125751.791000", "125751.794000", "125751.797000", "125751.800000", "125751.803000", "125751.806000", "125751.810000", "125751.813000", "125751.816000", "125751.819000", "125751.822000", "125751.825000", "125751.828000", "125751.831000", "125751.834000", "125831.741000", "125831.744000", "125831.747000", "125831.751000", "125831.754000", "125831.757000", "125831.760000", "125831.763000", "125831.774000", "125831.777000", "125831.780000", "125831.783000", "125831.786000", "125831.789000", "125831.792000", "125831.795000", "125831.798000", "125831.818000", "125831.822000", "125831.825000", "125831.828000", "125831.831000", "125831.834000", "125831.837000", "125831.840000", "125831.843000", "125831.846000", "125831.850000", "125831.853000", "125831.856000", "125831.859000", "125831.862000", "125911.741000", "125911.744000", "125911.748000", "125911.751000", "125911.753000", "125911.757000", "125911.760000", "125911.763000", "125911.766000", "125911.769000", "125911.772000", "125911.775000", "125911.778000", "125911.781000", "125911.784000", "125911.787000", "125911.790000", "125911.793000", "125911.796000", "125911.799000", "125911.802000", "125911.805000", "125911.808000", "125911.811000", "125911.814000", "125911.817000", "125911.820000", "125911.823000", "125911.826000", "125911.829000", "125911.832000", "125947.175000", "125947.179000", "125947.182000", "125947.186000", "125947.189000", "125947.192000", "125947.196000", "125947.199000", "125947.202000", "125947.205000", "125947.208000", "125947.211000", "125947.214000", "125947.217000", "125947.220000", "125947.223000", "125947.226000", "125947.229000", "125947.233000", "125947.236000", "125947.239000", "125947.242000", "125947.245000", "125947.248000", "125947.251000", "125947.254000", "125947.257000", "125947.260000"],
      "InstanceNumber": [1, 2, 3, 4, 5, 6, 7, 8, 9, 10, 11, 12, 13, 14, 15, 16, 17, 18, 19, 20, 21, 22, 23, 24, 25, 26, 27, 28, 29, 30, 31, 32, 33, 34, 35, 36, 37, 38, 39, 40, 41, 42, 43, 44, 45, 46, 47, 48, 49, 50, 51, 52, 53, 54, 55, 56, 57, 58, 59, 60, 61, 62, 63, 64, 65, 66, 67, 68, 69, 70, 71, 72, 73, 74, 75, 76, 77, 78, 79, 80, 81, 82, 83, 84, 85, 86, 87, 88, 89, 90, 91, 92, 93, 94, 95, 96, 97, 98, 99, 100, 101, 102, 103, 104, 105, 106, 107, 108, 109, 110, 111, 112, 113, 114, 115, 116, 117, 118, 119, 120, 121, 122, 123, 124, 125, 126, 127, 128, 129, 130, 131, 132, 133, 134, 135, 136, 137, 138, 139, 140, 141, 142, 143, 144, 145, 146, 147, 148, 149, 150, 151, 152, 153, 154, 155, 156, 157, 158, 159, 160, 161, 162, 163, 164, 165, 166, 167, 168, 169, 170, 171, 172, 173, 174, 175, 176, 177, 178, 179, 180, 181, 182, 183, 184, 185, 186, 187, 188, 189, 190, 191, 192, 193, 194, 195, 196, 197, 198, 199, 200, 201, 202, 203, 204, 205, 206, 207, 208, 209, 210, 211, 212, 213, 214, 215, 216, 217, 218, 219, 220, 221, 222, 223, 224, 225, 226, 227, 228, 229, 230, 231, 232, 233, 234, 235, 236, 237, 238, 239, 240, 241, 242, 243, 244, 245, 246, 247, 248, 249, 250, 251, 252, 253, 254, 255, 256, 257, 258, 259, 260, 261, 262, 263, 264, 265, 266, 267, 268, 269, 270, 271, 272, 273, 274, 275, 276, 277, 278, 279, 280, 281, 282, 283, 284, 285, 286, 287, 288, 289, 290, 291, 292, 293, 294, 295, 296, 297, 298, 299, 300, 301, 302, 303, 304, 305, 306, 307, 308, 309, 310, 311, 312, 313, 314, 315, 316, 317, 318, 319, 320, 321, 322, 323, 324, 325, 326, 327, 328, 329, 330, 331, 332, 333, 334, 335, 336, 337, 338, 339, 340, 341, 342, 343, 344, 345, 346, 347, 348, 349, 350, 351, 352, 353, 354, 355, 356, 357, 358, 359, 360, 361, 362, 363, 364, 365, 366, 367, 368, 369, 370, 371, 372, 373],
