{
  "AcquisitionMatrixPE": 108,
  "AcquisitionNumber": 1,
  "AcquisitionTime": "11:57:55.122500",
  "BandwidthPerPixelPhaseEncode": 15.964,
  "BaseResolution": 108,
  "BodyPartExamined": "BRAIN",
  "ConsistencyInfo": "N4_VE11C_LATEST_20160120",
  "ConversionSoftware": "dcm2niix",
  "ConversionSoftwareVersion": "v1.0.20180622 GCC6.3.0",
  "DerivedVendorReportedEchoSpacing": 0.000580009,
  "DeviceSerialNumber": "66054",
  "DwellTime": 2.1e-06,
  "EchoTime": 0.031,
  "EchoTrainLength": 95,
  "EffectiveEchoSpacing": 0.000580009,
  "FlipAngle": 64,
  "ImageOrientationPatientDICOM": [0.998328, 0.0191323, 0.0545492, 0.00871231, 0.883065, -0.469169],
  "ImageType": [
    "ORIGINAL",
    "PRIMARY",
    "M",
    "ND",
    "MOSAIC"
],
  "InPlanePhaseEncodingDirectionDICOM": "COL",
  "InstitutionAddress": "Chemin_des_Mines_9_Geneve_District_CH_1211",
  "InstitutionName": "Fondation_Campus_Biotech_Geneva",
  "InstitutionalDepartmentName": "Department",
  "MRAcquisitionType": "2D",
  "MagneticFieldStrength": 3,
  "Manufacturer": "Siemens",
  "ManufacturersModelName": "Prisma",
  "Modality": "MR",
  "MultibandAccelerationFactor": 4,
  "PartialFourier": 0.875,
  "PatientPosition": "HFS",
  "PercentPhaseFOV": 100,
  "PhaseEncodingDirection": "j-",
  "PhaseEncodingSteps": 95,
  "PhaseResolution": 1,
  "PixelBandwidth": 2205,
  "ProcedureStepDescription": "J.DRM_Michael",
  "ProtocolName": "Run1_bold_s4_TR1.28",
  "PulseSequenceDetails": "%SiemensSeq%_ep2d_bold",
  "ReceiveCoilActiveElements": "HC1-7;NC1,2",
  "ReceiveCoilName": "HeadNeck_64",
  "ReconMatrixPE": 108,
  "RepetitionTime": 1.28,
  "SAR": 0.0747322,
  "ScanOptions": "PFP_FS",
  "ScanningSequence": "EP",
  "SequenceName": "_epfid2d1_108",
  "SequenceVariant": "SK",
  "SeriesDescription": "Run1_bold_s4_TR1.28",
  "SeriesNumber": 6,
  "ShimSetting": [-1245, -11648, 6476, 550, 158, 13, -4, 40],
  "SliceThickness": 2,
  "SliceTiming": [0.945, 0, 0.63, 0.0775, 0.7075, 0.1575, 0.7875, 0.235, 0.865, 0.3925, 1.0225, 0.4725, 1.1025, 0.55, 1.18, 0.315, 0.945, 0, 0.63, 0.0775, 0.7075, 0.1575, 0.7875, 0.235, 0.865, 0.3925, 1.0225, 0.4725, 1.1025, 0.55, 1.18, 0.315, 0.945, 0, 0.63, 0.0775, 0.7075, 0.1575, 0.7875, 0.235, 0.865, 0.3925, 1.0225, 0.4725, 1.1025, 0.55, 1.18, 0.315, 0.945, 0, 0.63, 0.0775, 0.7075, 0.1575, 0.7875, 0.235, 0.865, 0.3925, 1.0225, 0.4725, 1.1025, 0.55, 1.18, 0.315],
  "SoftwareVersions": "syngo_MR_E11",
  "SpacingBetweenSlices": 2,
  "StationName": "AWP66054",
  "TaskName": "main",
  "TotalReadoutTime": 0.0620609,
  "TxRefAmp": 274.343,
  "dcmmeta_affine": [
    [-1.9874118566513062, 0.017343943938612938, 0.11429362744092941, 109.47187042236328],
    [-0.03808748349547386, 1.7579540014266968, -0.9377201795578003, -59.389984130859375],
    [0.10859334468841553, 0.9339946508407593, 1.7628437280654907, -97.05218505859375],
    [0.0, 0.0, 0.0, 1.0]
],
  "dcmmeta_reorient_transform": [
    [0.0, -1.0, 0.0, 107.0],
    [1.0, 0.0, 0.0, 0.0],
    [0.0, 0.0, 1.0, 0.0],
    [0.0, 0.0, 0.0, 1.0]
],
  "dcmmeta_shape": [108, 108, 64, 373],
  "dcmmeta_slice_dim": 2,
  "dcmmeta_version": 0.6,
  "global": {
    "const": {
      "AccessionNumber": "",
      "AcquisitionMatrix": [108, 0, 0, 108],
      "AngioFlag": "N",
      "BitsAllocated": 16,
      "BitsStored": 12,
      "BodyPartExamined": "BRAIN",
      "Columns": 864,
      "EchoNumbers": 1,
      "EchoTime": 31.0,
      "EchoTrainLength": 95,
      "FlipAngle": 64.0,
      "HighBit": 11,
      "ImageOrientationPatient": [0.99832777058, 0.01913231780388, 0.05454921543169, 0.00871230633907, 0.88306522104205, -0.4691693842358],
      "ImagePositionPatient": [-869.12534023358, -807.61474878222, 314.88692342808],
      "ImageType": [
        "ORIGINAL",
        "PRIMARY",
        "M",
        "ND",
        "MOSAIC"
],
      "ImagedNucleus": "1H",
      "ImagingFrequency": 123.257359,
      "InPlanePhaseEncodingDirection": "COL",
      "MRAcquisitionType": "2D",
      "MagneticFieldStrength": 3.0,
      "Manufacturer": "SIEMENS",
      "ManufacturerModelName": "Prisma",
      "Modality": "MR",
      "NumberOfAverages": 1.0,
      "NumberOfPhaseEncodingSteps": 95,
      "PercentPhaseFieldOfView": 100.0,
      "PercentSampling": 100.0,
      "PerformedProcedureStepStartTime": "112113.180000",
      "PhotometricInterpretation": "MONOCHROME2",
      "PixelBandwidth": 2205.0,
      "PixelRepresentation": 0,
      "PixelSpacing": [1.990740776062, 1.990740776062],
      "PositionReferenceIndicator": "",
      "ProtocolName": "Run1_bold_s4_TR1.28",
      "RepetitionTime": 1280.0,
      "Rows": 864,
      "SAR": 0.07473221510787,
      "SamplesPerPixel": 1,
      "ScanOptions": [
        "PFP",
        "FS"
],
      "ScanningSequence": "EP",
      "SequenceName": "*epfid2d1_108",
      "SequenceVariant": "SK",
      "SeriesDescription": "Run1_bold_s4_TR1.28",
      "SeriesNumber": 6,
      "SeriesTime": "115831.670000",
      "SliceLocation": -51.442354927466,
      "SliceThickness": 2.0,
      "SmallestImagePixelValue": 0,
      "SoftwareVersions": "syngo MR E11",
      "SpacingBetweenSlices": 2.0000000317763,
      "SpecificCharacterSet": "ISO_IR 100",
      "StudyID": "1",
      "StudyTime": "112113.119000",
      "TransmitCoilName": "Body",
      "VariableFlipAngleFlag": "N",
      "WindowCenterWidthExplanation": "Algo1",
      "dBdt": 0.0},
    "slices": {}
  },
  "time": {
    "samples": {
      "AcquisitionNumber": [1, 2, 3, 4, 5, 6, 7, 8, 9, 10, 11, 12, 13, 14, 15, 16, 17, 18, 19, 20, 21, 22, 23, 24, 25, 26, 27, 28, 29, 30, 31, 32, 33, 34, 35, 36, 37, 38, 39, 40, 41, 42, 43, 44, 45, 46, 47, 48, 49, 50, 51, 52, 53, 54, 55, 56, 57, 58, 59, 60, 61, 62, 63, 64, 65, 66, 67, 68, 69, 70, 71, 72, 73, 74, 75, 76, 77, 78, 79, 80, 81, 82, 83, 84, 85, 86, 87, 88, 89, 90, 91, 92, 93, 94, 95, 96, 97, 98, 99, 100, 101, 102, 103, 104, 105, 106, 107, 108, 109, 110, 111, 112, 113, 114, 115, 116, 117, 118, 119, 120, 121, 122, 123, 124, 125, 126, 127, 128, 129, 130, 131, 132, 133, 134, 135, 136, 137, 138, 139, 140, 141, 142, 143, 144, 145, 146, 147, 148, 149, 150, 151, 152, 153, 154, 155, 156, 157, 158, 159, 160, 161, 162, 163, 164, 165, 166, 167, 168, 169, 170, 171, 172, 173, 174, 175, 176, 177, 178, 179, 180, 181, 182, 183, 184, 185, 186, 187, 188, 189, 190, 191, 192, 193, 194, 195, 196, 197, 198, 199, 200, 201, 202, 203, 204, 205, 206, 207, 208, 209, 210, 211, 212, 213, 214, 215, 216, 217, 218, 219, 220, 221, 222, 223, 224, 225, 226, 227, 228, 229, 230, 231, 232, 233, 234, 235, 236, 237, 238, 239, 240, 241, 242, 243, 244, 245, 246, 247, 248, 249, 250, 251, 252, 253, 254, 255, 256, 257, 258, 259, 260, 261, 262, 263, 264, 265, 266, 267, 268, 269, 270, 271, 272, 273, 274, 275, 276, 277, 278, 279, 280, 281, 282, 283, 284, 285, 286, 287, 288, 289, 290, 291, 292, 293, 294, 295, 296, 297, 298, 299, 300, 301, 302, 303, 304, 305, 306, 307, 308, 309, 310, 311, 312, 313, 314, 315, 316, 317, 318, 319, 320, 321, 322, 323, 324, 325, 326, 327, 328, 329, 330, 331, 332, 333, 334, 335, 336, 337, 338, 339, 340, 341, 342, 343, 344, 345, 346, 347, 348, 349, 350, 351, 352, 353, 354, 355, 356, 357, 358, 359, 360, 361, 362, 363, 364, 365, 366, 367, 368, 369, 370, 371, 372, 373],
      "AcquisitionTime": ["115755.122500", "115756.402500", "115757.682500", "115758.962500", "115800.242500", "115801.522500", "115802.802500", "115804.082500", "115805.362500", "115806.642500", "115807.922500", "115809.202500", "115810.482500", "115811.762500", "115813.042500", "115814.322500", "115815.602500", "115816.882500", "115818.162500", "115819.442500", "115820.722500", "115822.002500", "115823.282500", "115824.562500", "115825.842500", "115827.122500", "115828.402500", "115829.682500", "115830.962500", "115832.242500", "115833.522500", "115834.802500", "115836.082500", "115837.362500", "115838.642500", "115839.922500", "115841.202500", "115842.482500", "115843.762500", "115845.042500", "115846.322500", "115847.602500", "115848.882500", "115850.162500", "115851.442500", "115852.722500", "115854.002500", "115855.282500", "115856.562500", "115857.842500", "115859.122500", "115900.402500", "115901.682500", "115902.962500", "115904.242500", "115905.522500", "115906.802500", "115908.082500", "115909.362500", "115910.642500", "115911.922500", "115913.202500", "115914.482500", "115915.762500", "115917.042500", "115918.322500", "115919.602500", "115920.882500", "115922.162500", "115923.442500", "115924.722500", "115926.002500", "115927.282500", "115928.562500", "115929.842500", "115931.122500", "115932.402500", "115933.682500", "115934.962500", "115936.242500", "115937.522500", "115938.802500", "115940.082500", "115941.362500", "115942.642500", "115943.922500", "115945.202500", "115946.482500", "115947.762500", "115949.042500", "115950.322500", "115951.602500", "115952.882500", "115954.162500", "115955.442500", "115956.722500", "115958.002500", "115959.282500", "120000.562500", "120001.842500", "120003.122500", "120004.402500", "120005.682500", "120006.962500", "120008.242500", "120009.522500", "120010.802500", "120012.082500", "120013.362500", "120014.642500", "120015.922500", "120017.202500", "120018.482500", "120019.762500", "120021.042500", "120022.322500", "120023.602500", "120024.882500", "120026.162500", "120027.442500", "120028.722500", "120030.002500", "120031.282500", "120032.562500", "120033.842500", "120035.122500", "120036.402500", "120037.682500", "120038.962500", "120040.242500", "120041.522500", "120042.802500", "120044.082500", "120045.362500", "120046.642500", "120047.922500", "120049.202500", "120050.482500", "120051.762500", "120053.042500", "120054.322500", "120055.602500", "120056.882500", "120058.162500", "120059.442500", "120100.722500", "120102.002500", "120103.282500", "120104.562500", "120105.842500", "120107.122500", "120108.402500", "120109.682500", "120110.962500", "120112.242500", "120113.522500", "120114.802500", "120116.082500", "120117.362500", "120118.642500", "120119.922500", "120121.202500", "120122.482500", "120123.762500", "120125.042500", "120126.322500", "120127.602500", "120128.882500", "120130.162500", "120131.442500", "120132.722500", "120134.002500", "120135.282500", "120136.562500", "120137.842500", "120139.122500", "120140.402500", "120141.682500", "120142.962500", "120144.242500", "120145.522500", "120146.802500", "120148.082500", "120149.362500", "120150.642500", "120151.922500", "120153.202500", "120154.482500", "120155.762500", "120157.042500", "120158.322500", "120159.602500", "120200.882500", "120202.162500", "120203.442500", "120204.722500", "120206.002500", "120207.282500", "120208.562500", "120209.842500", "120211.122500", "120212.402500", "120213.682500", "120214.962500", "120216.242500", "120217.522500", "120218.802500", "120220.082500", "120221.362500", "120222.642500", "120223.922500", "120225.202500", "120226.482500", "120227.762500", "120229.042500", "120230.322500", "120231.602500", "120232.882500", "120234.162500", "120235.442500", "120236.722500", "120238.002500", "120239.282500", "120240.562500", "120241.842500", "120243.122500", "120244.402500", "120245.682500", "120246.962500", "120248.242500", "120249.522500", "120250.802500", "120252.082500", "120253.362500", "120254.642500", "120255.922500", "120257.202500", "120258.482500", "120259.762500", "120301.042500", "120302.322500", "120303.602500", "120304.882500", "120306.162500", "120307.442500", "120308.722500", "120310.002500", "120311.282500", "120312.562500", "120313.842500", "120315.122500", "120316.402500", "120317.682500", "120318.962500", "120320.242500", "120321.522500", "120322.802500", "120324.082500", "120325.362500", "120326.642500", "120327.922500", "120329.202500", "120330.482500", "120331.762500", "120333.042500", "120334.322500", "120335.602500", "120336.882500", "120338.162500", "120339.442500", "120340.722500", "120342.002500", "120343.282500", "120344.562500", "120345.842500", "120347.122500", "120348.402500", "120349.682500", "120350.962500", "120352.242500", "120353.522500", "120354.802500", "120356.082500", "120357.362500", "120358.642500", "120359.922500", "120401.202500", "120402.482500", "120403.762500", "120405.042500", "120406.322500", "120407.602500", "120408.882500", "120410.162500", "120411.442500", "120412.722500", "120414.002500", "120415.282500", "120416.562500", "120417.842500", "120419.122500", "120420.402500", "120421.682500", "120422.962500", "120424.242500", "120425.522500", "120426.802500", "120428.082500", "120429.362500", "120430.642500", "120431.922500", "120433.202500", "120434.482500", "120435.762500", "120437.042500", "120438.322500", "120439.602500", "120440.882500", "120442.162500", "120443.442500", "120444.722500", "120446.002500", "120447.282500", "120448.562500", "120449.842500", "120451.122500", "120452.402500", "120453.682500", "120454.962500", "120456.242500", "120457.522500", "120458.802500", "120500.082500", "120501.362500", "120502.642500", "120503.922500", "120505.202500", "120506.482500", "120507.762500", "120509.042500", "120510.322500", "120511.602500", "120512.882500", "120514.162500", "120515.442500", "120516.722500", "120518.002500", "120519.282500", "120520.562500", "120521.842500", "120523.122500", "120524.402500", "120525.682500", "120526.962500", "120528.242500", "120529.522500", "120530.802500", "120532.082500", "120533.362500", "120534.642500", "120535.922500", "120537.202500", "120538.482500", "120539.762500", "120541.042500", "120542.322500", "120543.602500", "120544.882500", "120546.162500", "120547.442500", "120548.722500", "120550.002500", "120551.282500"],
      "ContentTime": ["115831.674000", "115831.678000", "115831.681000", "115831.684000", "115831.686000", "115831.693000", "115831.696000", "115831.699000", "115831.702000", "115831.705000", "115831.708000", "115831.711000", "115831.714000", "115831.717000", "115831.720000", "115831.723000", "115831.726000", "115831.729000", "115831.732000", "115831.735000", "115831.738000", "115831.741000", "115831.743000", "115831.746000", "115831.750000", "115831.753000", "115831.756000", "115831.758000", "115911.669000", "115911.672000", "115911.675000", "115911.678000", "115911.681000", "115911.684000", "115911.687000", "115911.690000", "115911.693000", "115911.696000", "115911.699000", "115911.702000", "115911.706000", "115911.708000", "115911.711000", "115911.714000", "115911.717000", "115911.720000", "115911.723000", "115911.726000", "115911.729000", "115911.744000", "115911.747000", "115911.750000", "115911.753000", "115911.756000", "115911.759000", "115911.762000", "115911.765000", "115911.768000", "115911.771000", "115951.670000", "115951.673000", "115951.676000", "115951.679000", "115951.682000", "115951.685000", "115951.688000", "115951.691000", "115951.694000", "115951.697000", "115951.700000", "115951.703000", "115951.706000", "115951.709000", "115951.712000", "115951.715000", "115951.718000", "115951.721000", "115951.724000", "115951.727000", "115951.730000", "115951.733000", "115951.736000", "115951.739000", "115951.742000", "115951.745000", "115951.748000", "115951.751000", "115951.754000", "115951.765000", "115951.768000", "115951.771000", "120031.669000", "120031.672000", "120031.675000", "120031.678000", "120031.681000", "120031.684000", "120031.687000", "120031.690000", "120031.693000", "120031.696000", "120031.699000", "120031.702000", "120031.705000", "120031.708000", "120031.711000", "120031.714000", "120031.717000", "120031.720000", "120031.723000", "120031.726000", "120031.729000", "120031.732000", "120031.736000", "120031.739000", "120031.742000", "120031.745000", "120031.747000", "120031.750000", "120031.754000", "120031.757000", "120031.759000", "120111.669000", "120111.672000", "120111.675000", "120111.678000", "120111.681000", "120111.684000", "120111.687000", "120111.690000", "120111.694000", "120111.697000", "120111.700000", "120111.703000", "120111.706000", "120111.709000", "120111.712000", "120111.715000", "120111.718000", "120111.721000", "120111.724000", "120111.727000", "120111.730000", "120111.733000", "120111.736000", "120111.739000", "120111.742000", "120111.745000", "120111.748000", "120111.751000", "120111.754000", "120111.757000", "120111.761000", "120151.670000", "120151.673000", "120151.676000", "120151.679000", "120151.682000", "120151.685000", "120151.688000", "120151.691000", "120151.694000", "120151.697000", "120151.700000", "120151.703000", "120151.706000", "120151.709000", "120151.712000", "120151.715000", "120151.718000", "120151.721000", "120151.724000", "120151.727000", "120151.730000", "120151.733000", "120151.736000", "120151.739000", "120151.742000", "120151.745000", "120151.748000", "120151.751000", "120151.754000", "120151.757000", "120151.760000", "120231.669000", "120231.677000", "120231.684000", "120231.687000", "120231.697000", "120231.706000", "120231.709000", "120231.712000", "120231.715000", "120231.718000", "120231.721000", "120231.724000", "120231.727000", "120231.730000", "120231.737000", "120231.741000", "120231.744000", "120231.747000", "120231.750000", "120231.753000", "120231.756000", "120231.759000", "120231.762000", "120231.765000", "120231.768000", "120231.771000", "120231.774000", "120231.786000", "120231.789000", "120231.792000", "120231.795000", "120231.798000", "120311.669000", "120311.672000", "120311.675000", "120311.678000", "120311.681000", "120311.684000", "120311.687000", "120311.690000", "120311.694000", "120311.697000", "120311.700000", "120311.703000", "120311.706000", "120311.709000", "120311.712000", "120311.715000", "120311.718000", "120311.721000", "120311.724000", "120311.727000", "120311.739000", "120311.751000", "120311.754000", "120311.757000", "120311.760000", "120311.763000", "120311.766000", "120311.770000", "120311.773000", "120311.775000", "120311.780000", "120351.669000", "120351.680000", "120351.683000", "120351.686000", "120351.689000", "120351.692000", "120351.695000", "120351.698000", "120351.701000", "120351.704000", "120351.707000", "120351.710000", "120351.713000", "120351.716000", "120351.727000", "120351.730000", "120351.733000", "120351.736000", "120351.739000", "120351.742000", "120351.745000", "120351.748000", "120351.751000", "120351.754000", "120351.757000", "120351.760000", "120351.763000", "120351.766000", "120351.769000", "120351.772000", "120351.775000", "120431.670000", "120431.673000", "120431.676000", "120431.679000", "120431.682000", "120431.685000", "120431.688000", "120431.692000", "120431.695000", "120431.698000", "120431.701000", "120431.704000", "120431.707000", "120431.710000", "120431.713000", "120431.716000", "120431.719000", "120431.722000", "120431.725000", "120431.728000", "120431.731000", "120431.734000", "120431.737000", "120431.740000", "120431.744000", "120431.746000", "120431.756000", "120431.759000", "120431.762000", "120431.765000", "120431.768000", "120451.669000", "120451.672000", "120451.675000", "120451.678000", "120451.681000", "120451.684000", "120451.687000", "120451.695000", "120451.698000", "120451.702000", "120451.705000", "120451.708000", "120451.711000", "120451.714000", "120451.717000", "120451.720000", "120531.669000", "120531.672000", "120531.675000", "120531.678000", "120531.681000", "120531.684000", "120531.687000", "120531.691000", "120531.694000", "120531.697000", "120531.699000", "120531.703000", "120531.706000", "120531.709000", "120531.712000", "120531.715000", "120531.718000", "120531.721000", "120531.724000", "120531.727000", "120531.730000", "120531.733000", "120531.736000", "120531.739000", "120531.742000", "120531.745000", "120531.748000", "120531.751000", "120531.754000", "120531.757000", "120531.760000", "120552.429000", "120552.433000", "120552.436000", "120552.439000", "120552.442000", "120552.446000", "120552.449000", "120552.452000", "120552.455000", "120552.459000", "120552.471000", "120552.474000", "120552.477000", "120552.481000", "120552.484000", "120552.488000", "120552.491000"],
      "InstanceCreationTime": ["115831.674000", "115831.678000", "115831.681000", "115831.684000", "115831.686000", "115831.693000", "115831.696000", "115831.699000", "115831.702000", "115831.705000", "115831.708000", "115831.711000", "115831.714000", "115831.717000", "115831.720000", "115831.723000", "115831.726000", "115831.729000", "115831.732000", "115831.735000", "115831.738000", "115831.741000", "115831.743000", "115831.746000", "115831.750000", "115831.753000", "115831.756000", "115831.758000", "115911.669000", "115911.672000", "115911.675000", "115911.678000", "115911.681000", "115911.684000", "115911.687000", "115911.690000", "115911.693000", "115911.696000", "115911.699000", "115911.702000", "115911.706000", "115911.708000", "115911.711000", "115911.714000", "115911.717000", "115911.720000", "115911.723000", "115911.726000", "115911.729000", "115911.744000", "115911.747000", "115911.750000", "115911.753000", "115911.756000", "115911.759000", "115911.762000", "115911.765000", "115911.768000", "115911.771000", "115951.670000", "115951.673000", "115951.676000", "115951.679000", "115951.682000", "115951.685000", "115951.688000", "115951.691000", "115951.694000", "115951.697000", "115951.700000", "115951.703000", "115951.706000", "115951.709000", "115951.712000", "115951.715000", "115951.718000", "115951.721000", "115951.724000", "115951.727000", "115951.730000", "115951.733000", "115951.736000", "115951.739000", "115951.742000", "115951.745000", "115951.748000", "115951.751000", "115951.754000", "115951.765000", "115951.768000", "115951.771000", "120031.669000", "120031.672000", "120031.675000", "120031.678000", "120031.681000", "120031.684000", "120031.687000", "120031.690000", "120031.693000", "120031.696000", "120031.699000", "120031.702000", "120031.705000", "120031.708000", "120031.711000", "120031.714000", "120031.717000", "120031.720000", "120031.723000", "120031.726000", "120031.729000", "120031.732000", "120031.736000", "120031.739000", "120031.742000", "120031.745000", "120031.747000", "120031.750000", "120031.754000", "120031.757000", "120031.759000", "120111.669000", "120111.672000", "120111.675000", "120111.678000", "120111.681000", "120111.684000", "120111.687000", "120111.690000", "120111.694000", "120111.697000", "120111.700000", "120111.703000", "120111.706000", "120111.709000", "120111.712000", "120111.715000", "120111.718000", "120111.721000", "120111.724000", "120111.727000", "120111.730000", "120111.733000", "120111.736000", "120111.739000", "120111.742000", "120111.745000", "120111.748000", "120111.751000", "120111.754000", "120111.757000", "120111.761000", "120151.670000", "120151.673000", "120151.676000", "120151.679000", "120151.682000", "120151.685000", "120151.688000", "120151.691000", "120151.694000", "120151.697000", "120151.700000", "120151.703000", "120151.706000", "120151.709000", "120151.712000", "120151.715000", "120151.718000", "120151.721000", "120151.724000", "120151.727000", "120151.730000", "120151.733000", "120151.736000", "120151.739000", "120151.742000", "120151.745000", "120151.748000", "120151.751000", "120151.754000", "120151.757000", "120151.760000", "120231.669000", "120231.677000", "120231.684000", "120231.687000", "120231.697000", "120231.706000", "120231.709000", "120231.712000", "120231.715000", "120231.718000", "120231.721000", "120231.724000", "120231.727000", "120231.730000", "120231.737000", "120231.741000", "120231.744000", "120231.747000", "120231.750000", "120231.753000", "120231.756000", "120231.759000", "120231.762000", "120231.765000", "120231.768000", "120231.771000", "120231.774000", "120231.786000", "120231.789000", "120231.792000", "120231.795000", "120231.798000", "120311.669000", "120311.672000", "120311.675000", "120311.678000", "120311.681000", "120311.684000", "120311.687000", "120311.690000", "120311.694000", "120311.697000", "120311.700000", "120311.703000", "120311.706000", "120311.709000", "120311.712000", "120311.715000", "120311.718000", "120311.721000", "120311.724000", "120311.727000", "120311.739000", "120311.751000", "120311.754000", "120311.757000", "120311.760000", "120311.763000", "120311.766000", "120311.770000", "120311.773000", "120311.775000", "120311.780000", "120351.669000", "120351.680000", "120351.683000", "120351.686000", "120351.689000", "120351.692000", "120351.695000", "120351.698000", "120351.701000", "120351.704000", "120351.707000", "120351.710000", "120351.713000", "120351.716000", "120351.727000", "120351.730000", "120351.733000", "120351.736000", "120351.739000", "120351.742000", "120351.745000", "120351.748000", "120351.751000", "120351.754000", "120351.757000", "120351.760000", "120351.763000", "120351.766000", "120351.769000", "120351.772000", "120351.775000", "120431.670000", "120431.673000", "120431.676000", "120431.679000", "120431.682000", "120431.685000", "120431.688000", "120431.692000", "120431.695000", "120431.698000", "120431.701000", "120431.704000", "120431.707000", "120431.710000", "120431.713000", "120431.716000", "120431.719000", "120431.722000", "120431.725000", "120431.728000", "120431.731000", "120431.734000", "120431.737000", "120431.740000", "120431.744000", "120431.746000", "120431.756000", "120431.759000", "120431.762000", "120431.765000", "120431.768000", "120451.669000", "120451.672000", "120451.675000", "120451.678000", "120451.681000", "120451.684000", "120451.687000", "120451.695000", "120451.698000", "120451.702000", "120451.705000", "120451.708000", "120451.711000", "120451.714000", "120451.717000", "120451.720000", "120531.669000", "120531.672000", "120531.675000", "120531.678000", "120531.681000", "120531.684000", "120531.687000", "120531.691000", "120531.694000", "120531.697000", "120531.699000", "120531.703000", "120531.706000", "120531.709000", "120531.712000", "120531.715000", "120531.718000", "120531.721000", "120531.724000", "120531.727000", "120531.730000", "120531.733000", "120531.736000", "120531.739000", "120531.742000", "120531.745000", "120531.748000", "120531.751000", "120531.754000", "120531.757000", "120531.760000", "120552.429000", "120552.433000", "120552.436000", "120552.439000", "120552.442000", "120552.446000", "120552.449000", "120552.452000", "120552.455000", "120552.459000", "120552.471000", "120552.474000", "120552.477000", "120552.481000", "120552.484000", "120552.488000", "120552.491000"],
      "InstanceNumber": [1, 2, 3, 4, 5, 6, 7, 8, 9, 10, 11, 12, 13, 14, 15, 16, 17, 18, 19, 20, 21, 22, 23, 24, 25, 26, 27, 28, 29, 30, 31, 32, 33, 34, 35, 36, 37, 38, 39, 40, 41, 42, 43, 44, 45, 46, 47, 48, 49, 50, 51, 52, 53, 54, 55, 56, 57, 58, 59, 60, 61, 62, 63, 64, 65, 66, 67, 68, 69, 70, 71, 72, 73, 74, 75, 76, 77, 78, 79, 80, 81, 82, 83, 84, 85, 86, 87, 88, 89, 90, 91, 92, 93, 94, 95, 96, 97, 98, 99, 100, 101, 102, 103, 104, 105, 106, 107, 108, 109, 110, 111, 112, 113, 114, 115, 116, 117, 118, 119, 120, 121, 122, 123, 124, 125, 126, 127, 128, 129, 130, 131, 132, 133, 134, 135, 136, 137, 138, 139, 140, 141, 142, 143, 144, 145, 146, 147, 148, 149, 150, 151, 152, 153, 154, 155, 156, 157, 158, 159, 160, 161, 162, 163, 164, 165, 166, 167, 168, 169, 170, 171, 172, 173, 174, 175, 176, 177, 178, 179, 180, 181, 182, 183, 184, 185, 186, 187, 188, 189, 190, 191, 192, 193, 194, 195, 196, 197, 198, 199, 200, 201, 202, 203, 204, 205, 206, 207, 208, 209, 210, 211, 212, 213, 214, 215, 216, 217, 218, 219, 220, 221, 222, 223, 224, 225, 226, 227, 228, 229, 230, 231, 232, 233, 234, 235, 236, 237, 238, 239, 240, 241, 242, 243, 244, 245, 246, 247, 248, 249, 250, 251, 252, 253, 254, 255, 256, 257, 258, 259, 260, 261, 262, 263, 264, 265, 266, 267, 268, 269, 270, 271, 272, 273, 274, 275, 276, 277, 278, 279, 280, 281, 282, 283, 284, 285, 286, 287, 288, 289, 290, 291, 292, 293, 294, 295, 296, 297, 298, 299, 300, 301, 302, 303, 304, 305, 306, 307, 308, 309, 310, 311, 312, 313, 314, 315, 316, 317, 318, 319, 320, 321, 322, 323, 324, 325, 326, 327, 328, 329, 330, 331, 332, 333, 334, 335, 336, 337, 338, 339, 340, 341, 342, 343, 344, 345, 346, 347, 348, 349, 350, 351, 352, 353, 354, 355, 356, 357, 358, 359, 360, 361, 362, 363, 364, 365, 366, 367, 368, 369, 370, 371, 372, 373],
