{
  "AcquisitionMatrixPE": 108,
  "AcquisitionNumber": 1,
  "AcquisitionTime": "15:27:26.925000",
  "BandwidthPerPixelPhaseEncode": 15.964,
  "BaseResolution": 108,
  "BodyPartExamined": "BRAIN",
  "ConsistencyInfo": "N4_VE11C_LATEST_20160120",
  "ConversionSoftware": "dcm2niix",
  "ConversionSoftwareVersion": "v1.0.20180622 GCC6.3.0",
  "DerivedVendorReportedEchoSpacing": 0.000580009,
  "DeviceSerialNumber": "66054",
  "DwellTime": 2.1e-06,
  "EchoTime": 0.031,
  "EchoTrainLength": 95,
  "EffectiveEchoSpacing": 0.000580009,
  "FlipAngle": 64,
  "ImageOrientationPatientDICOM": [0.999551, -0.0288035, 0.00827414, 0.029666, 0.911881, -0.409381],
  "ImageType": [
    "ORIGINAL",
    "PRIMARY",
    "M",
    "ND",
    "MOSAIC"
],
  "InPlanePhaseEncodingDirectionDICOM": "COL",
  "InstitutionAddress": "Chemin_des_Mines_9_Geneve_District_CH_1211",
  "InstitutionName": "Fondation_Campus_Biotech_Geneva",
  "InstitutionalDepartmentName": "Department",
  "MRAcquisitionType": "2D",
  "MagneticFieldStrength": 3,
  "Manufacturer": "Siemens",
  "ManufacturersModelName": "Prisma",
  "Modality": "MR",
  "MultibandAccelerationFactor": 4,
  "PartialFourier": 0.875,
  "PatientPosition": "HFS",
  "PercentPhaseFOV": 100,
  "PhaseEncodingDirection": "j-",
  "PhaseEncodingSteps": 95,
  "PhaseResolution": 1,
  "PixelBandwidth": 2205,
  "ProcedureStepDescription": "J.DRM_Michael",
  "ProtocolName": "Run3_bold_s4_TR1.28",
  "PulseSequenceDetails": "%SiemensSeq%_ep2d_bold",
  "ReceiveCoilActiveElements": "HC1-7;NC1,2",
  "ReceiveCoilName": "HeadNeck_64",
  "ReconMatrixPE": 108,
  "RepetitionTime": 1.28,
  "SAR": 0.0684923,
  "ScanOptions": "PFP_FS",
  "ScanningSequence": "EP",
  "SequenceName": "_epfid2d1_108",
  "SequenceVariant": "SK",
  "SeriesDescription": "Run3_bold_s4_TR1.28",
  "SeriesNumber": 8,
  "ShimSetting": [-1271, -11647, 6350, 539, 133, -133, -51, -6],
  "SliceThickness": 2,
  "SliceTiming": [0.945, 0, 0.63, 0.08, 0.71, 0.1575, 0.7875, 0.2375, 0.8675, 0.395, 1.025, 0.4725, 1.1025, 0.5525, 1.1825, 0.315, 0.945, 0, 0.63, 0.08, 0.71, 0.1575, 0.7875, 0.2375, 0.8675, 0.395, 1.025, 0.4725, 1.1025, 0.5525, 1.1825, 0.315, 0.945, 0, 0.63, 0.08, 0.71, 0.1575, 0.7875, 0.2375, 0.8675, 0.395, 1.025, 0.4725, 1.1025, 0.5525, 1.1825, 0.315, 0.945, 0, 0.63, 0.08, 0.71, 0.1575, 0.7875, 0.2375, 0.8675, 0.395, 1.025, 0.4725, 1.1025, 0.5525, 1.1825, 0.315],
  "SoftwareVersions": "syngo_MR_E11",
  "SpacingBetweenSlices": 2,
  "StationName": "AWP66054",
  "TaskName": "main",
  "TotalReadoutTime": 0.0620609,
  "TxRefAmp": 247.253,
  "dcmmeta_affine": [
    [-1.9898465871810913, 0.0590573251247406, -0.008493136614561081, 100.5897216796875],
    [0.05734037235379219, 1.815319299697876, -0.8188841938972473, -75.3567886352539],
    [0.016471676528453827, 0.8149704933166504, 1.8246524333953857, -90.40058898925781],
    [0.0, 0.0, 0.0, 1.0]
],
  "dcmmeta_reorient_transform": [
    [0.0, -1.0, 0.0, 107.0],
    [1.0, 0.0, 0.0, 0.0],
    [0.0, 0.0, 1.0, 0.0],
    [0.0, 0.0, 0.0, 1.0]
],
  "dcmmeta_shape": [108, 108, 64, 373],
  "dcmmeta_slice_dim": 2,
  "dcmmeta_version": 0.6,
  "global": {
    "const": {
      "AccessionNumber": "",
      "AcquisitionMatrix": [108, 0, 0, 108],
      "AngioFlag": "N",
      "BitsAllocated": 16,
      "BitsStored": 12,
      "BodyPartExamined": "BRAIN",
      "Columns": 864,
      "EchoNumbers": 1,
      "EchoTime": 31.0,
      "EchoTrainLength": 95,
      "FlipAngle": 64.0,
      "HighBit": 11,
      "ImageOrientationPatient": [0.9995508465583, -0.028803535772, 0.00827414476606, 0.02966600413672, 0.91188130855513, -0.4093805165202],
      "ImagePositionPatient": [-881.39454748253, -783.39840945126, 298.63380165536],
      "ImageType": [
        "ORIGINAL",
        "PRIMARY",
        "M",
        "ND",
        "MOSAIC"
],
      "ImagedNucleus": "1H",
      "ImagingFrequency": 123.257481,
      "InPlanePhaseEncodingDirection": "COL",
      "MRAcquisitionType": "2D",
      "MagneticFieldStrength": 3.0,
      "Manufacturer": "SIEMENS",
      "ManufacturerModelName": "Prisma",
      "Modality": "MR",
      "NumberOfAverages": 1.0,
      "NumberOfPhaseEncodingSteps": 95,
      "PercentPhaseFieldOfView": 100.0,
      "PercentSampling": 100.0,
      "PerformedProcedureStepStartTime": "142145.129000",
      "PhotometricInterpretation": "MONOCHROME2",
      "PixelBandwidth": 2205.0,
      "PixelRepresentation": 0,
      "PixelSpacing": [1.990740776062, 1.990740776062],
      "PositionReferenceIndicator": "",
      "ProtocolName": "Run3_bold_s4_TR1.28",
      "RepetitionTime": 1280.0,
      "Rows": 864,
      "SAR": 0.06849226729569,
      "SamplesPerPixel": 1,
      "ScanOptions": [
        "PFP",
        "FS"
],
      "ScanningSequence": "EP",
      "SequenceName": "*epfid2d1_108",
      "SequenceVariant": "SK",
      "SeriesDescription": "Run3_bold_s4_TR1.28",
      "SeriesNumber": 8,
      "SeriesTime": "152800.896000",
      "SliceLocation": -52.047746869182,
      "SliceThickness": 2.0,
      "SmallestImagePixelValue": 0,
      "SoftwareVersions": "syngo MR E11",
      "SpacingBetweenSlices": 2.0000000295218,
      "SpecificCharacterSet": "ISO_IR 100",
      "StudyID": "1",
      "StudyTime": "142145.061000",
      "TransmitCoilName": "Body",
      "VariableFlipAngleFlag": "N",
      "WindowCenterWidthExplanation": "Algo1",
      "dBdt": 0.0},
    "slices": {}
  },
  "time": {
    "samples": {
      "AcquisitionNumber": [1, 2, 3, 4, 5, 6, 7, 8, 9, 10, 11, 12, 13, 14, 15, 16, 17, 18, 19, 20, 21, 22, 23, 24, 25, 26, 27, 28, 29, 30, 31, 32, 33, 34, 35, 36, 37, 38, 39, 40, 41, 42, 43, 44, 45, 46, 47, 48, 49, 50, 51, 52, 53, 54, 55, 56, 57, 58, 59, 60, 61, 62, 63, 64, 65, 66, 67, 68, 69, 70, 71, 72, 73, 74, 75, 76, 77, 78, 79, 80, 81, 82, 83, 84, 85, 86, 87, 88, 89, 90, 91, 92, 93, 94, 95, 96, 97, 98, 99, 100, 101, 102, 103, 104, 105, 106, 107, 108, 109, 110, 111, 112, 113, 114, 115, 116, 117, 118, 119, 120, 121, 122, 123, 124, 125, 126, 127, 128, 129, 130, 131, 132, 133, 134, 135, 136, 137, 138, 139, 140, 141, 142, 143, 144, 145, 146, 147, 148, 149, 150, 151, 152, 153, 154, 155, 156, 157, 158, 159, 160, 161, 162, 163, 164, 165, 166, 167, 168, 169, 170, 171, 172, 173, 174, 175, 176, 177, 178, 179, 180, 181, 182, 183, 184, 185, 186, 187, 188, 189, 190, 191, 192, 193, 194, 195, 196, 197, 198, 199, 200, 201, 202, 203, 204, 205, 206, 207, 208, 209, 210, 211, 212, 213, 214, 215, 216, 217, 218, 219, 220, 221, 222, 223, 224, 225, 226, 227, 228, 229, 230, 231, 232, 233, 234, 235, 236, 237, 238, 239, 240, 241, 242, 243, 244, 245, 246, 247, 248, 249, 250, 251, 252, 253, 254, 255, 256, 257, 258, 259, 260, 261, 262, 263, 264, 265, 266, 267, 268, 269, 270, 271, 272, 273, 274, 275, 276, 277, 278, 279, 280, 281, 282, 283, 284, 285, 286, 287, 288, 289, 290, 291, 292, 293, 294, 295, 296, 297, 298, 299, 300, 301, 302, 303, 304, 305, 306, 307, 308, 309, 310, 311, 312, 313, 314, 315, 316, 317, 318, 319, 320, 321, 322, 323, 324, 325, 326, 327, 328, 329, 330, 331, 332, 333, 334, 335, 336, 337, 338, 339, 340, 341, 342, 343, 344, 345, 346, 347, 348, 349, 350, 351, 352, 353, 354, 355, 356, 357, 358, 359, 360, 361, 362, 363, 364, 365, 366, 367, 368, 369, 370, 371, 372, 373],
      "AcquisitionTime": ["152726.925000", "152728.205000", "152729.485000", "152730.765000", "152732.045000", "152733.325000", "152734.605000", "152735.885000", "152737.165000", "152738.445000", "152739.725000", "152741.005000", "152742.285000", "152743.565000", "152744.845000", "152746.125000", "152747.405000", "152748.685000", "152749.965000", "152751.245000", "152752.525000", "152753.805000", "152755.085000", "152756.365000", "152757.645000", "152758.925000", "152800.205000", "152801.485000", "152802.765000", "152804.045000", "152805.325000", "152806.605000", "152807.885000", "152809.165000", "152810.445000", "152811.725000", "152813.005000", "152814.285000", "152815.565000", "152816.845000", "152818.125000", "152819.405000", "152820.685000", "152821.965000", "152823.245000", "152824.525000", "152825.805000", "152827.085000", "152828.365000", "152829.645000", "152830.925000", "152832.205000", "152833.485000", "152834.765000", "152836.045000", "152837.325000", "152838.605000", "152839.885000", "152841.165000", "152842.445000", "152843.725000", "152845.005000", "152846.285000", "152847.565000", "152848.845000", "152850.125000", "152851.405000", "152852.685000", "152853.965000", "152855.245000", "152856.525000", "152857.805000", "152859.085000", "152900.365000", "152901.645000", "152902.925000", "152904.205000", "152905.485000", "152906.765000", "152908.045000", "152909.325000", "152910.605000", "152911.885000", "152913.165000", "152914.445000", "152915.725000", "152917.005000", "152918.285000", "152919.565000", "152920.845000", "152922.125000", "152923.405000", "152924.685000", "152925.965000", "152927.245000", "152928.525000", "152929.805000", "152931.085000", "152932.365000", "152933.645000", "152934.925000", "152936.205000", "152937.485000", "152938.765000", "152940.045000", "152941.325000", "152942.605000", "152943.885000", "152945.165000", "152946.445000", "152947.725000", "152949.005000", "152950.285000", "152951.565000", "152952.845000", "152954.125000", "152955.405000", "152956.685000", "152957.965000", "152959.245000", "153000.525000", "153001.805000", "153003.085000", "153004.365000", "153005.645000", "153006.925000", "153008.205000", "153009.485000", "153010.765000", "153012.045000", "153013.325000", "153014.605000", "153015.885000", "153017.165000", "153018.445000", "153019.725000", "153021.005000", "153022.285000", "153023.565000", "153024.845000", "153026.125000", "153027.405000", "153028.685000", "153029.965000", "153031.245000", "153032.525000", "153033.805000", "153035.085000", "153036.365000", "153037.645000", "153038.925000", "153040.205000", "153041.485000", "153042.765000", "153044.045000", "153045.325000", "153046.605000", "153047.885000", "153049.165000", "153050.445000", "153051.725000", "153053.005000", "153054.285000", "153055.565000", "153056.845000", "153058.125000", "153059.405000", "153100.685000", "153101.965000", "153103.245000", "153104.525000", "153105.805000", "153107.085000", "153108.365000", "153109.645000", "153110.925000", "153112.205000", "153113.485000", "153114.765000", "153116.045000", "153117.325000", "153118.605000", "153119.885000", "153121.165000", "153122.445000", "153123.725000", "153125.005000", "153126.285000", "153127.565000", "153128.845000", "153130.125000", "153131.405000", "153132.685000", "153133.965000", "153135.245000", "153136.525000", "153137.805000", "153139.085000", "153140.365000", "153141.645000", "153142.925000", "153144.205000", "153145.485000", "153146.765000", "153148.045000", "153149.325000", "153150.605000", "153151.885000", "153153.165000", "153154.445000", "153155.725000", "153157.005000", "153158.285000", "153159.565000", "153200.845000", "153202.125000", "153203.405000", "153204.685000", "153205.965000", "153207.245000", "153208.525000", "153209.805000", "153211.085000", "153212.365000", "153213.645000", "153214.925000", "153216.205000", "153217.485000", "153218.765000", "153220.045000", "153221.325000", "153222.605000", "153223.885000", "153225.165000", "153226.445000", "153227.725000", "153229.005000", "153230.285000", "153231.565000", "153232.845000", "153234.125000", "153235.405000", "153236.685000", "153237.965000", "153239.245000", "153240.525000", "153241.805000", "153243.085000", "153244.365000", "153245.645000", "153246.925000", "153248.205000", "153249.485000", "153250.765000", "153252.045000", "153253.325000", "153254.605000", "153255.885000", "153257.165000", "153258.445000", "153259.725000", "153301.005000", "153302.285000", "153303.565000", "153304.845000", "153306.125000", "153307.405000", "153308.685000", "153309.965000", "153311.245000", "153312.525000", "153313.805000", "153315.085000", "153316.365000", "153317.645000", "153318.925000", "153320.205000", "153321.485000", "153322.765000", "153324.045000", "153325.325000", "153326.605000", "153327.885000", "153329.165000", "153330.445000", "153331.725000", "153333.005000", "153334.285000", "153335.565000", "153336.845000", "153338.125000", "153339.405000", "153340.685000", "153341.965000", "153343.245000", "153344.525000", "153345.805000", "153347.085000", "153348.365000", "153349.645000", "153350.925000", "153352.205000", "153353.485000", "153354.765000", "153356.045000", "153357.325000", "153358.605000", "153359.885000", "153401.165000", "153402.445000", "153403.725000", "153405.005000", "153406.285000", "153407.565000", "153408.845000", "153410.125000", "153411.405000", "153412.685000", "153413.965000", "153415.245000", "153416.525000", "153417.805000", "153419.085000", "153420.365000", "153421.645000", "153422.925000", "153424.205000", "153425.485000", "153426.765000", "153428.045000", "153429.325000", "153430.605000", "153431.885000", "153433.165000", "153434.445000", "153435.725000", "153437.005000", "153438.285000", "153439.565000", "153440.845000", "153442.125000", "153443.405000", "153444.685000", "153445.965000", "153447.245000", "153448.525000", "153449.805000", "153451.085000", "153452.365000", "153453.645000", "153454.925000", "153456.205000", "153457.485000", "153458.765000", "153500.045000", "153501.325000", "153502.605000", "153503.885000", "153505.165000", "153506.445000", "153507.725000", "153509.005000", "153510.285000", "153511.565000", "153512.845000", "153514.125000", "153515.405000", "153516.685000", "153517.965000", "153519.245000", "153520.525000", "153521.805000", "153523.085000"],
      "ContentTime": ["152800.899000", "152800.903000", "152800.906000", "152800.909000", "152800.912000", "152800.923000", "152800.933000", "152800.936000", "152800.939000", "152800.942000", "152800.945000", "152800.947000", "152800.951000", "152800.962000", "152800.965000", "152800.968000", "152800.971000", "152800.974000", "152800.977000", "152800.979000", "152800.982000", "152800.985000", "152800.988000", "152800.991000", "152800.994000", "152800.997000", "152840.895000", "152840.898000", "152840.901000", "152840.904000", "152840.906000", "152840.909000", "152840.970000", "152840.973000", "152840.976000", "152840.979000", "152840.982000", "152840.985000", "152840.988000", "152840.991000", "152840.993000", "152840.996000", "152841.000000", "152841.003000", "152841.006000", "152841.009000", "152841.012000", "152841.015000", "152841.017000", "152841.020000", "152841.023000", "152841.033000", "152841.036000", "152841.044000", "152841.047000", "152841.050000", "152841.053000", "152841.055000", "152900.915000", "152900.918000", "152900.921000", "152900.924000", "152900.927000", "152900.930000", "152900.932000", "152900.935000", "152900.938000", "152900.941000", "152900.944000", "152900.947000", "152900.949000", "152900.952000", "152900.955000", "152940.895000", "152940.898000", "152940.901000", "152940.904000", "152940.907000", "152940.910000", "152940.913000", "152940.915000", "152940.918000", "152940.921000", "152940.924000", "152940.927000", "152940.930000", "152940.933000", "152940.935000", "152940.938000", "152940.941000", "152940.944000", "152940.947000", "152940.950000", "152940.953000", "152940.955000", "152940.958000", "152940.961000", "152940.964000", "152940.967000", "152940.971000", "152940.974000", "152940.977000", "152940.980000", "152940.983000", "153020.896000", "153020.899000", "153020.907000", "153020.910000", "153020.913000", "153020.916000", "153020.919000", "153020.922000", "153020.925000", "153020.928000", "153020.930000", "153020.933000", "153020.936000", "153020.939000", "153020.942000", "153020.945000", "153020.948000", "153020.951000", "153020.954000", "153020.956000", "153020.959000", "153020.962000", "153020.965000", "153020.968000", "153020.971000", "153020.974000", "153020.977000", "153020.979000", "153020.982000", "153020.985000", "153020.988000", "153020.991000", "153100.895000", "153100.898000", "153100.901000", "153100.904000", "153100.907000", "153100.910000", "153100.913000", "153100.915000", "153100.918000", "153100.921000", "153100.931000", "153100.934000", "153100.937000", "153100.940000", "153100.943000", "153100.946000", "153100.949000", "153100.952000", "153100.955000", "153100.958000", "153100.961000", "153100.964000", "153100.967000", "153100.970000", "153100.973000", "153100.975000", "153100.978000", "153100.981000", "153100.984000", "153100.987000", "153100.990000", "153140.895000", "153140.905000", "153140.908000", "153140.911000", "153140.914000", "153140.917000", "153140.919000", "153140.922000", "153140.925000", "153140.928000", "153140.931000", "153140.934000", "153140.937000", "153140.940000", "153140.943000", "153140.946000", "153140.949000", "153140.951000", "153140.954000", "153140.957000", "153140.960000", "153140.963000", "153140.966000", "153140.969000", "153140.972000", "153140.975000", "153140.978000", "153140.980000", "153140.983000", "153140.986000", "153140.989000", "153220.895000", "153220.898000", "153220.901000", "153220.904000", "153220.907000", "153220.910000", "153220.913000", "153220.917000", "153220.920000", "153220.923000", "153220.926000", "153220.929000", "153220.932000", "153220.935000", "153220.938000", "153220.941000", "153220.944000", "153220.947000", "153220.950000", "153220.953000", "153220.955000", "153220.958000", "153220.961000", "153220.964000", "153220.967000", "153220.970000", "153220.981000", "153220.984000", "153220.987000", "153220.990000", "153220.998000", "153300.895000", "153300.908000", "153300.911000", "153300.914000", "153300.916000", "153300.919000", "153300.922000", "153300.925000", "153300.928000", "153300.931000", "153300.934000", "153300.937000", "153300.940000", "153300.943000", "153300.946000", "153300.949000", "153300.952000", "153300.955000", "153300.958000", "153300.961000", "153300.963000", "153300.967000", "153300.969000", "153300.972000", "153300.975000", "153300.978000", "153300.981000", "153300.984000", "153300.987000", "153300.990000", "153300.993000", "153300.996000", "153340.895000", "153340.898000", "153340.901000", "153340.904000", "153340.907000", "153340.910000", "153340.913000", "153340.916000", "153340.919000", "153340.922000", "153340.924000", "153340.927000", "153340.930000", "153340.933000", "153340.936000", "153340.939000", "153340.942000", "153340.945000", "153340.948000", "153340.951000", "153340.954000", "153340.957000", "153340.960000", "153340.963000", "153340.966000", "153340.968000", "153340.971000", "153340.974000", "153340.977000", "153340.980000", "153340.983000", "153420.895000", "153420.898000", "153420.901000", "153420.904000", "153420.907000", "153420.910000", "153420.913000", "153420.916000", "153420.918000", "153420.921000", "153420.924000", "153420.927000", "153420.930000", "153420.933000", "153420.936000", "153420.939000", "153420.942000", "153420.944000", "153420.947000", "153420.950000", "153420.953000", "153420.956000", "153420.959000", "153420.962000", "153420.965000", "153420.968000", "153420.971000", "153420.974000", "153420.977000", "153420.980000", "153420.983000", "153500.896000", "153500.899000", "153500.902000", "153500.905000", "153500.908000", "153500.910000", "153500.913000", "153500.916000", "153500.919000", "153500.922000", "153500.925000", "153500.928000", "153500.931000", "153500.934000", "153500.937000", "153500.940000", "153500.943000", "153500.945000", "153500.948000", "153500.951000", "153500.954000", "153500.957000", "153500.960000", "153500.963000", "153500.966000", "153500.969000", "153500.972000", "153500.975000", "153500.978000", "153500.980000", "153500.983000", "153500.986000", "153523.935000", "153523.939000", "153523.942000", "153523.946000", "153523.951000", "153523.954000", "153523.957000", "153523.961000", "153523.964000", "153523.968000", "153523.971000", "153523.975000", "153523.978000", "153523.981000", "153523.985000", "153523.988000", "153523.992000", "153523.995000"],
      "InstanceCreationTime": ["152800.899000", "152800.903000", "152800.906000", "152800.909000", "152800.912000", "152800.923000", "152800.933000", "152800.936000", "152800.939000", "152800.942000", "152800.945000", "152800.947000", "152800.951000", "152800.962000", "152800.965000", "152800.968000", "152800.971000", "152800.974000", "152800.977000", "152800.979000", "152800.982000", "152800.985000", "152800.988000", "152800.991000", "152800.994000", "152800.997000", "152840.895000", "152840.898000", "152840.901000", "152840.904000", "152840.906000", "152840.909000", "152840.970000", "152840.973000", "152840.976000", "152840.979000", "152840.982000", "152840.985000", "152840.988000", "152840.991000", "152840.993000", "152840.996000", "152841.000000", "152841.003000", "152841.006000", "152841.009000", "152841.012000", "152841.015000", "152841.017000", "152841.020000", "152841.023000", "152841.033000", "152841.036000", "152841.044000", "152841.047000", "152841.050000", "152841.053000", "152841.055000", "152900.915000", "152900.918000", "152900.921000", "152900.924000", "152900.927000", "152900.930000", "152900.932000", "152900.935000", "152900.938000", "152900.941000", "152900.944000", "152900.947000", "152900.949000", "152900.952000", "152900.955000", "152940.895000", "152940.898000", "152940.901000", "152940.904000", "152940.907000", "152940.910000", "152940.913000", "152940.915000", "152940.918000", "152940.921000", "152940.924000", "152940.927000", "152940.930000", "152940.933000", "152940.935000", "152940.938000", "152940.941000", "152940.944000", "152940.947000", "152940.950000", "152940.953000", "152940.955000", "152940.958000", "152940.961000", "152940.964000", "152940.967000", "152940.971000", "152940.974000", "152940.977000", "152940.980000", "152940.983000", "153020.896000", "153020.899000", "153020.907000", "153020.910000", "153020.913000", "153020.916000", "153020.919000", "153020.922000", "153020.925000", "153020.928000", "153020.930000", "153020.933000", "153020.936000", "153020.939000", "153020.942000", "153020.945000", "153020.948000", "153020.951000", "153020.954000", "153020.956000", "153020.959000", "153020.962000", "153020.965000", "153020.968000", "153020.971000", "153020.974000", "153020.977000", "153020.979000", "153020.982000", "153020.985000", "153020.988000", "153020.991000", "153100.895000", "153100.898000", "153100.901000", "153100.904000", "153100.907000", "153100.910000", "153100.913000", "153100.915000", "153100.918000", "153100.921000", "153100.931000", "153100.934000", "153100.937000", "153100.940000", "153100.943000", "153100.946000", "153100.949000", "153100.952000", "153100.955000", "153100.958000", "153100.961000", "153100.964000", "153100.967000", "153100.970000", "153100.973000", "153100.975000", "153100.978000", "153100.981000", "153100.984000", "153100.987000", "153100.990000", "153140.895000", "153140.905000", "153140.908000", "153140.911000", "153140.914000", "153140.917000", "153140.919000", "153140.922000", "153140.925000", "153140.928000", "153140.931000", "153140.934000", "153140.937000", "153140.940000", "153140.943000", "153140.946000", "153140.949000", "153140.951000", "153140.954000", "153140.957000", "153140.960000", "153140.963000", "153140.966000", "153140.969000", "153140.972000", "153140.975000", "153140.978000", "153140.980000", "153140.983000", "153140.986000", "153140.989000", "153220.895000", "153220.898000", "153220.901000", "153220.904000", "153220.907000", "153220.910000", "153220.913000", "153220.917000", "153220.920000", "153220.923000", "153220.926000", "153220.929000", "153220.932000", "153220.935000", "153220.938000", "153220.941000", "153220.944000", "153220.947000", "153220.950000", "153220.953000", "153220.955000", "153220.958000", "153220.961000", "153220.964000", "153220.967000", "153220.970000", "153220.981000", "153220.984000", "153220.987000", "153220.990000", "153220.998000", "153300.895000", "153300.908000", "153300.911000", "153300.914000", "153300.916000", "153300.919000", "153300.922000", "153300.925000", "153300.928000", "153300.931000", "153300.934000", "153300.937000", "153300.940000", "153300.943000", "153300.946000", "153300.949000", "153300.952000", "153300.955000", "153300.958000", "153300.961000", "153300.963000", "153300.967000", "153300.969000", "153300.972000", "153300.975000", "153300.978000", "153300.981000", "153300.984000", "153300.987000", "153300.990000", "153300.993000", "153300.996000", "153340.895000", "153340.898000", "153340.901000", "153340.904000", "153340.907000", "153340.910000", "153340.913000", "153340.916000", "153340.919000", "153340.922000", "153340.924000", "153340.927000", "153340.930000", "153340.933000", "153340.936000", "153340.939000", "153340.942000", "153340.945000", "153340.948000", "153340.951000", "153340.954000", "153340.957000", "153340.960000", "153340.963000", "153340.966000", "153340.968000", "153340.971000", "153340.974000", "153340.977000", "153340.980000", "153340.983000", "153420.895000", "153420.898000", "153420.901000", "153420.904000", "153420.907000", "153420.910000", "153420.913000", "153420.916000", "153420.918000", "153420.921000", "153420.924000", "153420.927000", "153420.930000", "153420.933000", "153420.936000", "153420.939000", "153420.942000", "153420.944000", "153420.947000", "153420.950000", "153420.953000", "153420.956000", "153420.959000", "153420.962000", "153420.965000", "153420.968000", "153420.971000", "153420.974000", "153420.977000", "153420.980000", "153420.983000", "153500.896000", "153500.899000", "153500.902000", "153500.905000", "153500.908000", "153500.910000", "153500.913000", "153500.916000", "153500.919000", "153500.922000", "153500.925000", "153500.928000", "153500.931000", "153500.934000", "153500.937000", "153500.940000", "153500.943000", "153500.945000", "153500.948000", "153500.951000", "153500.954000", "153500.957000", "153500.960000", "153500.963000", "153500.966000", "153500.969000", "153500.972000", "153500.975000", "153500.978000", "153500.980000", "153500.983000", "153500.986000", "153523.935000", "153523.939000", "153523.942000", "153523.946000", "153523.951000", "153523.954000", "153523.957000", "153523.961000", "153523.964000", "153523.968000", "153523.971000", "153523.975000", "153523.978000", "153523.981000", "153523.985000", "153523.988000", "153523.992000", "153523.995000"],
      "InstanceNumber": [1, 2, 3, 4, 5, 6, 7, 8, 9, 10, 11, 12, 13, 14, 15, 16, 17, 18, 19, 20, 21, 22, 23, 24, 25, 26, 27, 28, 29, 30, 31, 32, 33, 34, 35, 36, 37, 38, 39, 40, 41, 42, 43, 44, 45, 46, 47, 48, 49, 50, 51, 52, 53, 54, 55, 56, 57, 58, 59, 60, 61, 62, 63, 64, 65, 66, 67, 68, 69, 70, 71, 72, 73, 74, 75, 76, 77, 78, 79, 80, 81, 82, 83, 84, 85, 86, 87, 88, 89, 90, 91, 92, 93, 94, 95, 96, 97, 98, 99, 100, 101, 102, 103, 104, 105, 106, 107, 108, 109, 110, 111, 112, 113, 114, 115, 116, 117, 118, 119, 120, 121, 122, 123, 124, 125, 126, 127, 128, 129, 130, 131, 132, 133, 134, 135, 136, 137, 138, 139, 140, 141, 142, 143, 144, 145, 146, 147, 148, 149, 150, 151, 152, 153, 154, 155, 156, 157, 158, 159, 160, 161, 162, 163, 164, 165, 166, 167, 168, 169, 170, 171, 172, 173, 174, 175, 176, 177, 178, 179, 180, 181, 182, 183, 184, 185, 186, 187, 188, 189, 190, 191, 192, 193, 194, 195, 196, 197, 198, 199, 200, 201, 202, 203, 204, 205, 206, 207, 208, 209, 210, 211, 212, 213, 214, 215, 216, 217, 218, 219, 220, 221, 222, 223, 224, 225, 226, 227, 228, 229, 230, 231, 232, 233, 234, 235, 236, 237, 238, 239, 240, 241, 242, 243, 244, 245, 246, 247, 248, 249, 250, 251, 252, 253, 254, 255, 256, 257, 258, 259, 260, 261, 262, 263, 264, 265, 266, 267, 268, 269, 270, 271, 272, 273, 274, 275, 276, 277, 278, 279, 280, 281, 282, 283, 284, 285, 286, 287, 288, 289, 290, 291, 292, 293, 294, 295, 296, 297, 298, 299, 300, 301, 302, 303, 304, 305, 306, 307, 308, 309, 310, 311, 312, 313, 314, 315, 316, 317, 318, 319, 320, 321, 322, 323, 324, 325, 326, 327, 328, 329, 330, 331, 332, 333, 334, 335, 336, 337, 338, 339, 340, 341, 342, 343, 344, 345, 346, 347, 348, 349, 350, 351, 352, 353, 354, 355, 356, 357, 358, 359, 360, 361, 362, 363, 364, 365, 366, 367, 368, 369, 370, 371, 372, 373],
