{
  "AcquisitionMatrixPE": 108,
  "AcquisitionNumber": 1,
  "AcquisitionTime": "15:36:52.417500",
  "BandwidthPerPixelPhaseEncode": 15.964,
  "BaseResolution": 108,
  "BodyPartExamined": "BRAIN",
  "ConsistencyInfo": "N4_VE11C_LATEST_20160120",
  "ConversionSoftware": "dcm2niix",
  "ConversionSoftwareVersion": "v1.0.20180622 GCC6.3.0",
  "DerivedVendorReportedEchoSpacing": 0.000580009,
  "DeviceSerialNumber": "66054",
  "DwellTime": 2.1e-06,
  "EchoTime": 0.031,
  "EchoTrainLength": 95,
  "EffectiveEchoSpacing": 0.000580009,
  "FlipAngle": 64,
  "ImageOrientationPatientDICOM": [0.999551, -0.0288035, 0.00827414, 0.029666, 0.911881, -0.409381],
  "ImageType": [
    "ORIGINAL",
    "PRIMARY",
    "M",
    "ND",
    "MOSAIC"
],
  "InPlanePhaseEncodingDirectionDICOM": "COL",
  "InstitutionAddress": "Chemin_des_Mines_9_Geneve_District_CH_1211",
  "InstitutionName": "Fondation_Campus_Biotech_Geneva",
  "InstitutionalDepartmentName": "Department",
  "MRAcquisitionType": "2D",
  "MagneticFieldStrength": 3,
  "Manufacturer": "Siemens",
  "ManufacturersModelName": "Prisma",
  "Modality": "MR",
  "MultibandAccelerationFactor": 4,
  "PartialFourier": 0.875,
  "PatientPosition": "HFS",
  "PercentPhaseFOV": 100,
  "PhaseEncodingDirection": "j-",
  "PhaseEncodingSteps": 95,
  "PhaseResolution": 1,
  "PixelBandwidth": 2205,
  "ProcedureStepDescription": "J.DRM_Michael",
  "ProtocolName": "Run4_bold_s4_TR1.28",
  "PulseSequenceDetails": "%SiemensSeq%_ep2d_bold",
  "ReceiveCoilActiveElements": "HC1-7;NC1,2",
  "ReceiveCoilName": "HeadNeck_64",
  "ReconMatrixPE": 108,
  "RepetitionTime": 1.28,
  "SAR": 0.0684923,
  "ScanOptions": "PFP_FS",
  "ScanningSequence": "EP",
  "SequenceName": "_epfid2d1_108",
  "SequenceVariant": "SK",
  "SeriesDescription": "Run4_bold_s4_TR1.28",
  "SeriesNumber": 9,
  "ShimSetting": [-1271, -11647, 6350, 539, 133, -133, -51, -6],
  "SliceThickness": 2,
  "SliceTiming": [0.945, 0, 0.63, 0.0775, 0.7075, 0.1575, 0.7875, 0.235, 0.865, 0.3925, 1.0225, 0.4725, 1.1025, 0.55, 1.18, 0.315, 0.945, 0, 0.63, 0.0775, 0.7075, 0.1575, 0.7875, 0.235, 0.865, 0.3925, 1.0225, 0.4725, 1.1025, 0.55, 1.18, 0.315, 0.945, 0, 0.63, 0.0775, 0.7075, 0.1575, 0.7875, 0.235, 0.865, 0.3925, 1.0225, 0.4725, 1.1025, 0.55, 1.18, 0.315, 0.945, 0, 0.63, 0.0775, 0.7075, 0.1575, 0.7875, 0.235, 0.865, 0.3925, 1.0225, 0.4725, 1.1025, 0.55, 1.18, 0.315],
  "SoftwareVersions": "syngo_MR_E11",
  "SpacingBetweenSlices": 2,
  "StationName": "AWP66054",
  "TaskName": "main",
  "TotalReadoutTime": 0.0620609,
  "TxRefAmp": 247.253,
  "dcmmeta_affine": [
    [-1.9898465871810913, 0.0590573251247406, -0.008493136614561081, 100.5897216796875],
    [0.05734037235379219, 1.815319299697876, -0.8188841938972473, -75.3567886352539],
    [0.016471676528453827, 0.8149704933166504, 1.8246524333953857, -90.40058898925781],
    [0.0, 0.0, 0.0, 1.0]
],
  "dcmmeta_reorient_transform": [
    [0.0, -1.0, 0.0, 107.0],
    [1.0, 0.0, 0.0, 0.0],
    [0.0, 0.0, 1.0, 0.0],
    [0.0, 0.0, 0.0, 1.0]
],
  "dcmmeta_shape": [108, 108, 64, 373],
  "dcmmeta_slice_dim": 2,
  "dcmmeta_version": 0.6,
  "global": {
    "const": {
      "AccessionNumber": "",
      "AcquisitionMatrix": [108, 0, 0, 108],
      "AngioFlag": "N",
      "BitsAllocated": 16,
      "BitsStored": 12,
      "BodyPartExamined": "BRAIN",
      "Columns": 864,
      "EchoNumbers": 1,
      "EchoTime": 31.0,
      "EchoTrainLength": 95,
      "FlipAngle": 64.0,
      "HighBit": 11,
      "ImageOrientationPatient": [0.9995508465583, -0.028803535772, 0.00827414476606, 0.02966600413672, 0.91188130855513, -0.4093805165202],
      "ImagePositionPatient": [-881.39454748253, -783.39840945126, 298.63380165536],
      "ImageType": [
        "ORIGINAL",
        "PRIMARY",
        "M",
        "ND",
        "MOSAIC"
],
      "ImagedNucleus": "1H",
      "ImagingFrequency": 123.257485,
      "InPlanePhaseEncodingDirection": "COL",
      "MRAcquisitionType": "2D",
      "MagneticFieldStrength": 3.0,
      "Manufacturer": "SIEMENS",
      "ManufacturerModelName": "Prisma",
      "Modality": "MR",
      "NumberOfAverages": 1.0,
      "NumberOfPhaseEncodingSteps": 95,
      "PercentPhaseFieldOfView": 100.0,
      "PercentSampling": 100.0,
      "PerformedProcedureStepStartTime": "142145.129000",
      "PhotometricInterpretation": "MONOCHROME2",
      "PixelBandwidth": 2205.0,
      "PixelRepresentation": 0,
      "PixelSpacing": [1.990740776062, 1.990740776062],
      "PositionReferenceIndicator": "",
      "ProtocolName": "Run4_bold_s4_TR1.28",
      "RepetitionTime": 1280.0,
      "Rows": 864,
      "SAR": 0.06849226729569,
      "SamplesPerPixel": 1,
      "ScanOptions": [
        "PFP",
        "FS"
],
      "ScanningSequence": "EP",
      "SequenceName": "*epfid2d1_108",
      "SequenceVariant": "SK",
      "SeriesDescription": "Run4_bold_s4_TR1.28",
      "SeriesNumber": 9,
      "SeriesTime": "153720.967000",
      "SliceLocation": -52.047746869182,
      "SliceThickness": 2.0,
      "SmallestImagePixelValue": 0,
      "SoftwareVersions": "syngo MR E11",
      "SpacingBetweenSlices": 2.0000000295218,
      "SpecificCharacterSet": "ISO_IR 100",
      "StudyID": "1",
      "StudyTime": "142145.061000",
      "TransmitCoilName": "Body",
      "VariableFlipAngleFlag": "N",
      "WindowCenterWidthExplanation": "Algo1",
      "dBdt": 0.0},
    "slices": {}
  },
  "time": {
    "samples": {
      "AcquisitionNumber": [1, 2, 3, 4, 5, 6, 7, 8, 9, 10, 11, 12, 13, 14, 15, 16, 17, 18, 19, 20, 21, 22, 23, 24, 25, 26, 27, 28, 29, 30, 31, 32, 33, 34, 35, 36, 37, 38, 39, 40, 41, 42, 43, 44, 45, 46, 47, 48, 49, 50, 51, 52, 53, 54, 55, 56, 57, 58, 59, 60, 61, 62, 63, 64, 65, 66, 67, 68, 69, 70, 71, 72, 73, 74, 75, 76, 77, 78, 79, 80, 81, 82, 83, 84, 85, 86, 87, 88, 89, 90, 91, 92, 93, 94, 95, 96, 97, 98, 99, 100, 101, 102, 103, 104, 105, 106, 107, 108, 109, 110, 111, 112, 113, 114, 115, 116, 117, 118, 119, 120, 121, 122, 123, 124, 125, 126, 127, 128, 129, 130, 131, 132, 133, 134, 135, 136, 137, 138, 139, 140, 141, 142, 143, 144, 145, 146, 147, 148, 149, 150, 151, 152, 153, 154, 155, 156, 157, 158, 159, 160, 161, 162, 163, 164, 165, 166, 167, 168, 169, 170, 171, 172, 173, 174, 175, 176, 177, 178, 179, 180, 181, 182, 183, 184, 185, 186, 187, 188, 189, 190, 191, 192, 193, 194, 195, 196, 197, 198, 199, 200, 201, 202, 203, 204, 205, 206, 207, 208, 209, 210, 211, 212, 213, 214, 215, 216, 217, 218, 219, 220, 221, 222, 223, 224, 225, 226, 227, 228, 229, 230, 231, 232, 233, 234, 235, 236, 237, 238, 239, 240, 241, 242, 243, 244, 245, 246, 247, 248, 249, 250, 251, 252, 253, 254, 255, 256, 257, 258, 259, 260, 261, 262, 263, 264, 265, 266, 267, 268, 269, 270, 271, 272, 273, 274, 275, 276, 277, 278, 279, 280, 281, 282, 283, 284, 285, 286, 287, 288, 289, 290, 291, 292, 293, 294, 295, 296, 297, 298, 299, 300, 301, 302, 303, 304, 305, 306, 307, 308, 309, 310, 311, 312, 313, 314, 315, 316, 317, 318, 319, 320, 321, 322, 323, 324, 325, 326, 327, 328, 329, 330, 331, 332, 333, 334, 335, 336, 337, 338, 339, 340, 341, 342, 343, 344, 345, 346, 347, 348, 349, 350, 351, 352, 353, 354, 355, 356, 357, 358, 359, 360, 361, 362, 363, 364, 365, 366, 367, 368, 369, 370, 371, 372, 373],
      "AcquisitionTime": ["153652.417500", "153653.697500", "153654.977500", "153656.257500", "153657.537500", "153658.817500", "153700.097500", "153701.377500", "153702.657500", "153703.937500", "153705.217500", "153706.497500", "153707.777500", "153709.057500", "153710.337500", "153711.617500", "153712.897500", "153714.177500", "153715.457500", "153716.737500", "153718.017500", "153719.297500", "153720.577500", "153721.857500", "153723.137500", "153724.417500", "153725.697500", "153726.977500", "153728.257500", "153729.537500", "153730.817500", "153732.097500", "153733.377500", "153734.657500", "153735.937500", "153737.217500", "153738.497500", "153739.777500", "153741.057500", "153742.337500", "153743.617500", "153744.897500", "153746.177500", "153747.457500", "153748.737500", "153750.017500", "153751.297500", "153752.577500", "153753.857500", "153755.137500", "153756.417500", "153757.697500", "153758.977500", "153800.257500", "153801.537500", "153802.817500", "153804.097500", "153805.377500", "153806.657500", "153807.937500", "153809.217500", "153810.497500", "153811.777500", "153813.057500", "153814.337500", "153815.617500", "153816.897500", "153818.177500", "153819.457500", "153820.737500", "153822.017500", "153823.297500", "153824.577500", "153825.857500", "153827.137500", "153828.417500", "153829.697500", "153830.977500", "153832.257500", "153833.537500", "153834.817500", "153836.097500", "153837.377500", "153838.657500", "153839.937500", "153841.217500", "153842.497500", "153843.777500", "153845.057500", "153846.337500", "153847.617500", "153848.897500", "153850.177500", "153851.457500", "153852.737500", "153854.017500", "153855.297500", "153856.577500", "153857.857500", "153859.137500", "153900.417500", "153901.697500", "153902.977500", "153904.257500", "153905.537500", "153906.817500", "153908.097500", "153909.377500", "153910.657500", "153911.937500", "153913.217500", "153914.497500", "153915.777500", "153917.057500", "153918.337500", "153919.617500", "153920.897500", "153922.177500", "153923.457500", "153924.737500", "153926.017500", "153927.297500", "153928.577500", "153929.857500", "153931.137500", "153932.417500", "153933.697500", "153934.977500", "153936.257500", "153937.537500", "153938.817500", "153940.097500", "153941.377500", "153942.657500", "153943.937500", "153945.217500", "153946.497500", "153947.777500", "153949.057500", "153950.337500", "153951.617500", "153952.897500", "153954.177500", "153955.457500", "153956.737500", "153958.017500", "153959.297500", "154000.577500", "154001.857500", "154003.137500", "154004.417500", "154005.697500", "154006.977500", "154008.257500", "154009.537500", "154010.817500", "154012.097500", "154013.377500", "154014.657500", "154015.937500", "154017.217500", "154018.497500", "154019.777500", "154021.057500", "154022.337500", "154023.617500", "154024.897500", "154026.177500", "154027.457500", "154028.737500", "154030.017500", "154031.297500", "154032.577500", "154033.857500", "154035.137500", "154036.417500", "154037.697500", "154038.977500", "154040.257500", "154041.537500", "154042.817500", "154044.097500", "154045.377500", "154046.657500", "154047.937500", "154049.217500", "154050.497500", "154051.777500", "154053.057500", "154054.337500", "154055.617500", "154056.897500", "154058.177500", "154059.457500", "154100.737500", "154102.017500", "154103.297500", "154104.577500", "154105.857500", "154107.137500", "154108.417500", "154109.697500", "154110.977500", "154112.257500", "154113.537500", "154114.817500", "154116.097500", "154117.377500", "154118.657500", "154119.937500", "154121.217500", "154122.497500", "154123.777500", "154125.057500", "154126.337500", "154127.617500", "154128.897500", "154130.177500", "154131.457500", "154132.737500", "154134.017500", "154135.297500", "154136.577500", "154137.857500", "154139.137500", "154140.417500", "154141.697500", "154142.977500", "154144.257500", "154145.537500", "154146.817500", "154148.097500", "154149.377500", "154150.657500", "154151.937500", "154153.217500", "154154.497500", "154155.777500", "154157.057500", "154158.337500", "154159.617500", "154200.897500", "154202.177500", "154203.457500", "154204.737500", "154206.017500", "154207.297500", "154208.577500", "154209.857500", "154211.137500", "154212.417500", "154213.697500", "154214.977500", "154216.257500", "154217.537500", "154218.817500", "154220.097500", "154221.377500", "154222.657500", "154223.937500", "154225.217500", "154226.497500", "154227.777500", "154229.057500", "154230.337500", "154231.617500", "154232.897500", "154234.177500", "154235.457500", "154236.737500", "154238.017500", "154239.297500", "154240.577500", "154241.857500", "154243.137500", "154244.417500", "154245.697500", "154246.977500", "154248.257500", "154249.537500", "154250.817500", "154252.097500", "154253.377500", "154254.657500", "154255.937500", "154257.217500", "154258.497500", "154259.777500", "154301.057500", "154302.337500", "154303.617500", "154304.897500", "154306.177500", "154307.457500", "154308.737500", "154310.017500", "154311.297500", "154312.577500", "154313.857500", "154315.137500", "154316.417500", "154317.697500", "154318.977500", "154320.257500", "154321.537500", "154322.817500", "154324.097500", "154325.377500", "154326.657500", "154327.937500", "154329.217500", "154330.497500", "154331.777500", "154333.057500", "154334.337500", "154335.617500", "154336.897500", "154338.177500", "154339.457500", "154340.737500", "154342.017500", "154343.297500", "154344.577500", "154345.857500", "154347.137500", "154348.417500", "154349.697500", "154350.977500", "154352.257500", "154353.537500", "154354.817500", "154356.097500", "154357.377500", "154358.657500", "154359.937500", "154401.217500", "154402.497500", "154403.777500", "154405.057500", "154406.337500", "154407.617500", "154408.897500", "154410.177500", "154411.457500", "154412.737500", "154414.017500", "154415.297500", "154416.577500", "154417.857500", "154419.137500", "154420.417500", "154421.697500", "154422.977500", "154424.257500", "154425.537500", "154426.817500", "154428.097500", "154429.377500", "154430.657500", "154431.937500", "154433.217500", "154434.497500", "154435.777500", "154437.057500", "154438.337500", "154439.617500", "154440.897500", "154442.177500", "154443.457500", "154444.737500", "154446.017500", "154447.297500", "154448.577500"],
      "ContentTime": ["153720.971000", "153720.974000", "153720.985000", "153720.988000", "153720.991000", "153720.994000", "153720.997000", "153721.000000", "153721.003000", "153721.005000", "153721.008000", "153721.011000", "153721.014000", "153721.017000", "153721.020000", "153721.023000", "153721.026000", "153721.029000", "153721.032000", "153721.035000", "153721.038000", "153721.040000", "153800.966000", "153800.969000", "153800.972000", "153800.975000", "153800.978000", "153800.981000", "153800.984000", "153800.987000", "153800.989000", "153800.992000", "153800.995000", "153801.005000", "153801.008000", "153801.011000", "153801.014000", "153801.017000", "153801.019000", "153801.022000", "153801.025000", "153801.028000", "153801.031000", "153801.034000", "153801.037000", "153801.040000", "153801.043000", "153801.045000", "153801.048000", "153801.051000", "153801.054000", "153801.057000", "153801.060000", "153840.966000", "153840.969000", "153840.972000", "153840.975000", "153840.978000", "153840.981000", "153840.983000", "153840.986000", "153840.989000", "153840.992000", "153840.995000", "153840.998000", "153841.002000", "153841.005000", "153841.008000", "153841.011000", "153841.014000", "153841.017000", "153841.020000", "153841.022000", "153841.025000", "153841.029000", "153841.032000", "153841.035000", "153841.047000", "153841.050000", "153841.053000", "153841.056000", "153841.059000", "153841.062000", "153841.065000", "153900.966000", "153900.969000", "153900.972000", "153900.975000", "153900.978000", "153900.981000", "153900.984000", "153900.987000", "153900.990000", "153900.993000", "153900.995000", "153900.998000", "153901.002000", "153901.005000", "153901.008000", "153901.011000", "153940.966000", "153940.969000", "153940.972000", "153940.975000", "153940.978000", "153940.981000", "153940.983000", "153940.986000", "153940.989000", "153940.992000", "153940.995000", "153940.998000", "153941.001000", "153941.004000", "153941.007000", "153941.009000", "153941.012000", "153941.015000", "153941.018000", "153941.021000", "153941.024000", "153941.027000", "153941.030000", "153941.033000", "153941.036000", "153941.039000", "153941.042000", "153941.045000", "153941.048000", "153941.051000", "153941.053000", "154020.966000", "154020.969000", "154020.972000", "154020.975000", "154020.978000", "154020.981000", "154020.984000", "154020.987000", "154020.990000", "154020.993000", "154020.996000", "154021.000000", "154021.003000", "154021.006000", "154021.009000", "154021.012000", "154021.015000", "154021.018000", "154021.021000", "154021.023000", "154021.026000", "154021.029000", "154021.045000", "154021.048000", "154021.051000", "154021.054000", "154021.058000", "154021.061000", "154021.064000", "154021.067000", "154021.070000", "154100.966000", "154100.969000", "154100.972000", "154100.975000", "154100.978000", "154100.981000", "154100.984000", "154100.987000", "154100.990000", "154100.993000", "154100.996000", "154101.000000", "154101.003000", "154101.005000", "154101.008000", "154101.011000", "154101.014000", "154101.024000", "154101.027000", "154101.030000", "154101.033000", "154101.036000", "154101.039000", "154101.042000", "154101.045000", "154101.048000", "154101.051000", "154101.054000", "154101.056000", "154101.059000", "154101.062000", "154101.065000", "154140.966000", "154140.969000", "154140.972000", "154140.975000", "154140.978000", "154140.981000", "154140.984000", "154140.987000", "154140.990000", "154140.993000", "154140.996000", "154141.000000", "154141.002000", "154141.006000", "154141.008000", "154141.012000", "154141.014000", "154141.017000", "154141.020000", "154141.023000", "154141.026000", "154141.029000", "154141.032000", "154141.035000", "154141.038000", "154141.041000", "154141.044000", "154141.047000", "154141.049000", "154141.062000", "154141.064000", "154220.966000", "154220.969000", "154220.972000", "154220.975000", "154220.978000", "154220.981000", "154220.984000", "154220.987000", "154220.990000", "154220.993000", "154220.996000", "154220.998000", "154221.002000", "154221.005000", "154221.008000", "154221.011000", "154221.014000", "154221.017000", "154221.020000", "154221.023000", "154221.026000", "154221.029000", "154221.032000", "154221.034000", "154221.038000", "154221.040000", "154221.043000", "154221.046000", "154221.049000", "154221.052000", "154221.055000", "154300.966000", "154300.969000", "154300.972000", "154300.975000", "154300.978000", "154300.981000", "154300.984000", "154300.987000", "154300.990000", "154300.993000", "154300.997000", "154301.001000", "154301.004000", "154301.007000", "154301.009000", "154301.012000", "154301.015000", "154301.018000", "154301.021000", "154301.024000", "154301.027000", "154301.030000", "154301.033000", "154301.036000", "154301.039000", "154301.042000", "154301.045000", "154301.048000", "154301.050000", "154301.054000", "154301.056000", "154340.966000", "154340.969000", "154340.972000", "154340.975000", "154340.978000", "154340.981000", "154340.984000", "154340.987000", "154340.990000", "154340.993000", "154340.996000", "154341.000000", "154341.003000", "154341.006000", "154341.008000", "154341.011000", "154341.014000", "154341.017000", "154341.020000", "154341.023000", "154341.033000", "154341.036000", "154341.039000", "154341.042000", "154341.045000", "154341.048000", "154341.051000", "154341.054000", "154341.057000", "154341.060000", "154341.063000", "154341.065000", "154420.966000", "154420.969000", "154420.972000", "154420.975000", "154420.978000", "154420.981000", "154420.984000", "154420.987000", "154420.990000", "154420.993000", "154420.996000", "154420.999000", "154421.002000", "154421.018000", "154421.021000", "154421.024000", "154421.026000", "154421.029000", "154421.032000", "154421.035000", "154421.038000", "154421.041000", "154421.044000", "154421.047000", "154421.050000", "154421.053000", "154421.056000", "154421.059000", "154421.062000", "154421.065000", "154421.068000", "154449.758000", "154449.762000", "154449.765000", "154449.768000", "154449.772000", "154449.775000", "154449.778000", "154449.782000", "154449.787000", "154449.791000", "154449.794000", "154449.797000", "154449.802000", "154449.805000", "154449.808000", "154449.812000", "154449.815000", "154449.818000", "154449.821000", "154449.824000", "154449.827000", "154449.831000", "154449.840000"],
      "InstanceCreationTime": ["153720.971000", "153720.974000", "153720.985000", "153720.988000", "153720.991000", "153720.994000", "153720.997000", "153721.000000", "153721.003000", "153721.005000", "153721.008000", "153721.011000", "153721.014000", "153721.017000", "153721.020000", "153721.023000", "153721.026000", "153721.029000", "153721.032000", "153721.035000", "153721.038000", "153721.040000", "153800.966000", "153800.969000", "153800.972000", "153800.975000", "153800.978000", "153800.981000", "153800.984000", "153800.987000", "153800.989000", "153800.992000", "153800.995000", "153801.005000", "153801.008000", "153801.011000", "153801.014000", "153801.017000", "153801.019000", "153801.022000", "153801.025000", "153801.028000", "153801.031000", "153801.034000", "153801.037000", "153801.040000", "153801.043000", "153801.045000", "153801.048000", "153801.051000", "153801.054000", "153801.057000", "153801.060000", "153840.966000", "153840.969000", "153840.972000", "153840.975000", "153840.978000", "153840.981000", "153840.983000", "153840.986000", "153840.989000", "153840.992000", "153840.995000", "153840.998000", "153841.002000", "153841.005000", "153841.008000", "153841.011000", "153841.014000", "153841.017000", "153841.020000", "153841.022000", "153841.025000", "153841.029000", "153841.032000", "153841.035000", "153841.047000", "153841.050000", "153841.053000", "153841.056000", "153841.059000", "153841.062000", "153841.065000", "153900.966000", "153900.969000", "153900.972000", "153900.975000", "153900.978000", "153900.981000", "153900.984000", "153900.987000", "153900.990000", "153900.993000", "153900.995000", "153900.998000", "153901.002000", "153901.005000", "153901.008000", "153901.011000", "153940.966000", "153940.969000", "153940.972000", "153940.975000", "153940.978000", "153940.981000", "153940.983000", "153940.986000", "153940.989000", "153940.992000", "153940.995000", "153940.998000", "153941.001000", "153941.004000", "153941.007000", "153941.009000", "153941.012000", "153941.015000", "153941.018000", "153941.021000", "153941.024000", "153941.027000", "153941.030000", "153941.033000", "153941.036000", "153941.039000", "153941.042000", "153941.045000", "153941.048000", "153941.051000", "153941.053000", "154020.966000", "154020.969000", "154020.972000", "154020.975000", "154020.978000", "154020.981000", "154020.984000", "154020.987000", "154020.990000", "154020.993000", "154020.996000", "154021.000000", "154021.003000", "154021.006000", "154021.009000", "154021.012000", "154021.015000", "154021.018000", "154021.021000", "154021.023000", "154021.026000", "154021.029000", "154021.045000", "154021.048000", "154021.051000", "154021.054000", "154021.058000", "154021.061000", "154021.064000", "154021.067000", "154021.070000", "154100.966000", "154100.969000", "154100.972000", "154100.975000", "154100.978000", "154100.981000", "154100.984000", "154100.987000", "154100.990000", "154100.993000", "154100.996000", "154101.000000", "154101.003000", "154101.005000", "154101.008000", "154101.011000", "154101.014000", "154101.024000", "154101.027000", "154101.030000", "154101.033000", "154101.036000", "154101.039000", "154101.042000", "154101.045000", "154101.048000", "154101.051000", "154101.054000", "154101.056000", "154101.059000", "154101.062000", "154101.065000", "154140.966000", "154140.969000", "154140.972000", "154140.975000", "154140.978000", "154140.981000", "154140.984000", "154140.987000", "154140.990000", "154140.993000", "154140.996000", "154141.000000", "154141.002000", "154141.006000", "154141.008000", "154141.012000", "154141.014000", "154141.017000", "154141.020000", "154141.023000", "154141.026000", "154141.029000", "154141.032000", "154141.035000", "154141.038000", "154141.041000", "154141.044000", "154141.047000", "154141.049000", "154141.062000", "154141.064000", "154220.966000", "154220.969000", "154220.972000", "154220.975000", "154220.978000", "154220.981000", "154220.984000", "154220.987000", "154220.990000", "154220.993000", "154220.996000", "154220.998000", "154221.002000", "154221.005000", "154221.008000", "154221.011000", "154221.014000", "154221.017000", "154221.020000", "154221.023000", "154221.026000", "154221.029000", "154221.032000", "154221.034000", "154221.038000", "154221.040000", "154221.043000", "154221.046000", "154221.049000", "154221.052000", "154221.055000", "154300.966000", "154300.969000", "154300.972000", "154300.975000", "154300.978000", "154300.981000", "154300.984000", "154300.987000", "154300.990000", "154300.993000", "154300.997000", "154301.001000", "154301.004000", "154301.007000", "154301.009000", "154301.012000", "154301.015000", "154301.018000", "154301.021000", "154301.024000", "154301.027000", "154301.030000", "154301.033000", "154301.036000", "154301.039000", "154301.042000", "154301.045000", "154301.048000", "154301.050000", "154301.054000", "154301.056000", "154340.966000", "154340.969000", "154340.972000", "154340.975000", "154340.978000", "154340.981000", "154340.984000", "154340.987000", "154340.990000", "154340.993000", "154340.996000", "154341.000000", "154341.003000", "154341.006000", "154341.008000", "154341.011000", "154341.014000", "154341.017000", "154341.020000", "154341.023000", "154341.033000", "154341.036000", "154341.039000", "154341.042000", "154341.045000", "154341.048000", "154341.051000", "154341.054000", "154341.057000", "154341.060000", "154341.063000", "154341.065000", "154420.966000", "154420.969000", "154420.972000", "154420.975000", "154420.978000", "154420.981000", "154420.984000", "154420.987000", "154420.990000", "154420.993000", "154420.996000", "154420.999000", "154421.002000", "154421.018000", "154421.021000", "154421.024000", "154421.026000", "154421.029000", "154421.032000", "154421.035000", "154421.038000", "154421.041000", "154421.044000", "154421.047000", "154421.050000", "154421.053000", "154421.056000", "154421.059000", "154421.062000", "154421.065000", "154421.068000", "154449.758000", "154449.762000", "154449.765000", "154449.768000", "154449.772000", "154449.775000", "154449.778000", "154449.782000", "154449.787000", "154449.791000", "154449.794000", "154449.797000", "154449.802000", "154449.805000", "154449.808000", "154449.812000", "154449.815000", "154449.818000", "154449.821000", "154449.824000", "154449.827000", "154449.831000", "154449.840000"],
      "InstanceNumber": [1, 2, 3, 4, 5, 6, 7, 8, 9, 10, 11, 12, 13, 14, 15, 16, 17, 18, 19, 20, 21, 22, 23, 24, 25, 26, 27, 28, 29, 30, 31, 32, 33, 34, 35, 36, 37, 38, 39, 40, 41, 42, 43, 44, 45, 46, 47, 48, 49, 50, 51, 52, 53, 54, 55, 56, 57, 58, 59, 60, 61, 62, 63, 64, 65, 66, 67, 68, 69, 70, 71, 72, 73, 74, 75, 76, 77, 78, 79, 80, 81, 82, 83, 84, 85, 86, 87, 88, 89, 90, 91, 92, 93, 94, 95, 96, 97, 98, 99, 100, 101, 102, 103, 104, 105, 106, 107, 108, 109, 110, 111, 112, 113, 114, 115, 116, 117, 118, 119, 120, 121, 122, 123, 124, 125, 126, 127, 128, 129, 130, 131, 132, 133, 134, 135, 136, 137, 138, 139, 140, 141, 142, 143, 144, 145, 146, 147, 148, 149, 150, 151, 152, 153, 154, 155, 156, 157, 158, 159, 160, 161, 162, 163, 164, 165, 166, 167, 168, 169, 170, 171, 172, 173, 174, 175, 176, 177, 178, 179, 180, 181, 182, 183, 184, 185, 186, 187, 188, 189, 190, 191, 192, 193, 194, 195, 196, 197, 198, 199, 200, 201, 202, 203, 204, 205, 206, 207, 208, 209, 210, 211, 212, 213, 214, 215, 216, 217, 218, 219, 220, 221, 222, 223, 224, 225, 226, 227, 228, 229, 230, 231, 232, 233, 234, 235, 236, 237, 238, 239, 240, 241, 242, 243, 244, 245, 246, 247, 248, 249, 250, 251, 252, 253, 254, 255, 256, 257, 258, 259, 260, 261, 262, 263, 264, 265, 266, 267, 268, 269, 270, 271, 272, 273, 274, 275, 276, 277, 278, 279, 280, 281, 282, 283, 284, 285, 286, 287, 288, 289, 290, 291, 292, 293, 294, 295, 296, 297, 298, 299, 300, 301, 302, 303, 304, 305, 306, 307, 308, 309, 310, 311, 312, 313, 314, 315, 316, 317, 318, 319, 320, 321, 322, 323, 324, 325, 326, 327, 328, 329, 330, 331, 332, 333, 334, 335, 336, 337, 338, 339, 340, 341, 342, 343, 344, 345, 346, 347, 348, 349, 350, 351, 352, 353, 354, 355, 356, 357, 358, 359, 360, 361, 362, 363, 364, 365, 366, 367, 368, 369, 370, 371, 372, 373],
