{
  "AcquisitionMatrixPE": 108,
  "AcquisitionNumber": 1,
  "AcquisitionTime": "11:54:31.642500",
  "BandwidthPerPixelPhaseEncode": 15.964,
  "BaseResolution": 108,
  "BodyPartExamined": "BRAIN",
  "ConsistencyInfo": "N4_VE11C_LATEST_20160120",
  "ConversionSoftware": "dcm2niix",
  "ConversionSoftwareVersion": "v1.0.20180622 GCC6.3.0",
  "DerivedVendorReportedEchoSpacing": 0.000580009,
  "DeviceSerialNumber": "66054",
  "DwellTime": 2.1e-06,
  "EchoTime": 0.031,
  "EchoTrainLength": 95,
  "EffectiveEchoSpacing": 0.000580009,
  "FlipAngle": 64,
  "ImageOrientationPatientDICOM": [0.988706, 0.144388, 0.0401435, -0.117896, 0.914743, -0.386452],
  "ImageType": [
    "ORIGINAL",
    "PRIMARY",
    "M",
    "ND",
    "MOSAIC"
],
  "InPlanePhaseEncodingDirectionDICOM": "COL",
  "InstitutionAddress": "Chemin_des_Mines_9_Geneve_District_CH_1211",
  "InstitutionName": "Fondation_Campus_Biotech_Geneva",
  "InstitutionalDepartmentName": "Department",
  "MRAcquisitionType": "2D",
  "MagneticFieldStrength": 3,
  "Manufacturer": "Siemens",
  "ManufacturersModelName": "Prisma",
  "Modality": "MR",
  "MultibandAccelerationFactor": 4,
  "PartialFourier": 0.875,
  "PatientPosition": "HFS",
  "PercentPhaseFOV": 100,
  "PhaseEncodingDirection": "j-",
  "PhaseEncodingSteps": 95,
  "PhaseResolution": 1,
  "PixelBandwidth": 2205,
  "ProcedureStepDescription": "J.DRM_Michael",
  "ProtocolName": "Run5_bold_s4_TR1.28",
  "PulseSequenceDetails": "%SiemensSeq%_ep2d_bold",
  "ReceiveCoilActiveElements": "HC1-7;NC1,2",
  "ReceiveCoilName": "HeadNeck_64",
  "ReconMatrixPE": 108,
  "RepetitionTime": 1.28,
  "SAR": 0.0704681,
  "ScanOptions": "PFP_FS",
  "ScanningSequence": "EP",
  "SequenceName": "_epfid2d1_108",
  "SequenceVariant": "SK",
  "SeriesDescription": "Run5_bold_s4_TR1.28",
  "SeriesNumber": 12,
  "ShimSetting": [-1252, -11685, 6458, 548, 162, -221, -53, 58],
  "SliceThickness": 2,
  "SliceTiming": [0.945, 0, 0.63, 0.08, 0.71, 0.1575, 0.7875, 0.2375, 0.8675, 0.395, 1.025, 0.4725, 1.1025, 0.5525, 1.1825, 0.315, 0.945, 0, 0.63, 0.08, 0.71, 0.1575, 0.7875, 0.2375, 0.8675, 0.395, 1.025, 0.4725, 1.1025, 0.5525, 1.1825, 0.315, 0.945, 0, 0.63, 0.08, 0.71, 0.1575, 0.7875, 0.2375, 0.8675, 0.395, 1.025, 0.4725, 1.1025, 0.5525, 1.1825, 0.315, 0.945, 0, 0.63, 0.08, 0.71, 0.1575, 0.7875, 0.2375, 0.8675, 0.395, 1.025, 0.4725, 1.1025, 0.5525, 1.1825, 0.315],
  "SoftwareVersions": "syngo_MR_E11",
  "SpacingBetweenSlices": 2,
  "StationName": "AWP66054",
  "TaskName": "main",
  "TotalReadoutTime": 0.0620609,
  "TxRefAmp": 248.348,
  "dcmmeta_affine": [
    [-1.968258261680603, -0.23470062017440796, 0.18504051864147186, 112.74041748046875],
    [-0.2874397337436676, 1.821016550064087, -0.7547104954719543, -57.46609115600586],
    [0.07991540431976318, 0.7693265676498413, 1.8428707122802734, -95.6504135131836],
    [0.0, 0.0, 0.0, 1.0]
],
  "dcmmeta_reorient_transform": [
    [0.0, -1.0, 0.0, 107.0],
    [1.0, 0.0, 0.0, 0.0],
    [0.0, 0.0, 1.0, 0.0],
    [0.0, 0.0, 0.0, 1.0]
],
  "dcmmeta_shape": [108, 108, 64, 373],
  "dcmmeta_slice_dim": 2,
  "dcmmeta_version": 0.6,
  "global": {
    "const": {
      "AccessionNumber": "",
      "AcquisitionMatrix": [108, 0, 0, 108],
      "AngioFlag": "N",
      "BitsAllocated": 16,
      "BitsStored": 12,
      "BodyPartExamined": "BRAIN",
      "Columns": 864,
      "EchoNumbers": 1,
      "EchoTime": 31.0,
      "EchoTrainLength": 95,
      "FlipAngle": 64.0,
      "HighBit": 11,
      "ImageOrientationPatient": [0.98870648136306, 0.14438832735409, 0.04014355034836, -0.1178961251664, 0.91474315787882, -0.3864524017064],
      "ImagePositionPatient": [-742.91225613018, -934.37913067755, 247.26494087746],
      "ImageType": [
        "ORIGINAL",
        "PRIMARY",
        "M",
        "ND",
        "MOSAIC"
],
      "ImagedNucleus": "1H",
      "ImagingFrequency": 123.257419,
      "InPlanePhaseEncodingDirection": "COL",
      "MRAcquisitionType": "2D",
      "MagneticFieldStrength": 3.0,
      "Manufacturer": "SIEMENS",
      "ManufacturerModelName": "Prisma",
      "Modality": "MR",
      "NumberOfAverages": 1.0,
      "NumberOfPhaseEncodingSteps": 95,
      "PercentPhaseFieldOfView": 100.0,
      "PercentSampling": 100.0,
      "PerformedProcedureStepStartTime": "110109.021000",
      "PhotometricInterpretation": "MONOCHROME2",
      "PixelBandwidth": 2205.0,
      "PixelRepresentation": 0,
      "PixelSpacing": [1.990740776062, 1.990740776062],
      "PositionReferenceIndicator": "",
      "ProtocolName": "Run5_bold_s4_TR1.28",
      "RepetitionTime": 1280.0,
      "Rows": 864,
      "SAR": 0.07046805207619,
      "SamplesPerPixel": 1,
      "ScanOptions": [
        "PFP",
        "FS"
],
      "ScanningSequence": "EP",
      "SequenceName": "*epfid2d1_108",
      "SequenceVariant": "SK",
      "SeriesDescription": "Run5_bold_s4_TR1.28",
      "SeriesNumber": 12,
      "SeriesTime": "115509.785000",
      "SliceLocation": -56.019768518516,
      "SliceThickness": 2.0,
      "SmallestImagePixelValue": 0,
      "SoftwareVersions": "syngo MR E11",
      "SpacingBetweenSlices": 2.0000000530406,
      "SpecificCharacterSet": "ISO_IR 100",
      "StudyID": "1",
      "StudyTime": "110108.840000",
      "TransmitCoilName": "Body",
      "VariableFlipAngleFlag": "N",
      "WindowCenterWidthExplanation": "Algo1",
      "dBdt": 0.0},
    "slices": {}
  },
  "time": {
    "samples": {
      "AcquisitionNumber": [1, 2, 3, 4, 5, 6, 7, 8, 9, 10, 11, 12, 13, 14, 15, 16, 17, 18, 19, 20, 21, 22, 23, 24, 25, 26, 27, 28, 29, 30, 31, 32, 33, 34, 35, 36, 37, 38, 39, 40, 41, 42, 43, 44, 45, 46, 47, 48, 49, 50, 51, 52, 53, 54, 55, 56, 57, 58, 59, 60, 61, 62, 63, 64, 65, 66, 67, 68, 69, 70, 71, 72, 73, 74, 75, 76, 77, 78, 79, 80, 81, 82, 83, 84, 85, 86, 87, 88, 89, 90, 91, 92, 93, 94, 95, 96, 97, 98, 99, 100, 101, 102, 103, 104, 105, 106, 107, 108, 109, 110, 111, 112, 113, 114, 115, 116, 117, 118, 119, 120, 121, 122, 123, 124, 125, 126, 127, 128, 129, 130, 131, 132, 133, 134, 135, 136, 137, 138, 139, 140, 141, 142, 143, 144, 145, 146, 147, 148, 149, 150, 151, 152, 153, 154, 155, 156, 157, 158, 159, 160, 161, 162, 163, 164, 165, 166, 167, 168, 169, 170, 171, 172, 173, 174, 175, 176, 177, 178, 179, 180, 181, 182, 183, 184, 185, 186, 187, 188, 189, 190, 191, 192, 193, 194, 195, 196, 197, 198, 199, 200, 201, 202, 203, 204, 205, 206, 207, 208, 209, 210, 211, 212, 213, 214, 215, 216, 217, 218, 219, 220, 221, 222, 223, 224, 225, 226, 227, 228, 229, 230, 231, 232, 233, 234, 235, 236, 237, 238, 239, 240, 241, 242, 243, 244, 245, 246, 247, 248, 249, 250, 251, 252, 253, 254, 255, 256, 257, 258, 259, 260, 261, 262, 263, 264, 265, 266, 267, 268, 269, 270, 271, 272, 273, 274, 275, 276, 277, 278, 279, 280, 281, 282, 283, 284, 285, 286, 287, 288, 289, 290, 291, 292, 293, 294, 295, 296, 297, 298, 299, 300, 301, 302, 303, 304, 305, 306, 307, 308, 309, 310, 311, 312, 313, 314, 315, 316, 317, 318, 319, 320, 321, 322, 323, 324, 325, 326, 327, 328, 329, 330, 331, 332, 333, 334, 335, 336, 337, 338, 339, 340, 341, 342, 343, 344, 345, 346, 347, 348, 349, 350, 351, 352, 353, 354, 355, 356, 357, 358, 359, 360, 361, 362, 363, 364, 365, 366, 367, 368, 369, 370, 371, 372, 373],
      "AcquisitionTime": ["115431.642500", "115432.922500", "115434.202500", "115435.482500", "115436.762500", "115438.042500", "115439.322500", "115440.602500", "115441.882500", "115443.162500", "115444.442500", "115445.722500", "115447.002500", "115448.282500", "115449.562500", "115450.842500", "115452.122500", "115453.402500", "115454.682500", "115455.962500", "115457.242500", "115458.522500", "115459.802500", "115501.082500", "115502.362500", "115503.642500", "115504.922500", "115506.202500", "115507.482500", "115508.762500", "115510.042500", "115511.322500", "115512.602500", "115513.882500", "115515.162500", "115516.442500", "115517.722500", "115519.002500", "115520.282500", "115521.562500", "115522.842500", "115524.122500", "115525.402500", "115526.682500", "115527.962500", "115529.242500", "115530.522500", "115531.802500", "115533.082500", "115534.362500", "115535.642500", "115536.922500", "115538.202500", "115539.482500", "115540.762500", "115542.042500", "115543.322500", "115544.602500", "115545.882500", "115547.162500", "115548.442500", "115549.722500", "115551.002500", "115552.282500", "115553.562500", "115554.842500", "115556.122500", "115557.402500", "115558.682500", "115559.962500", "115601.242500", "115602.522500", "115603.802500", "115605.082500", "115606.362500", "115607.642500", "115608.922500", "115610.202500", "115611.482500", "115612.762500", "115614.042500", "115615.322500", "115616.602500", "115617.882500", "115619.162500", "115620.442500", "115621.722500", "115623.002500", "115624.282500", "115625.562500", "115626.842500", "115628.122500", "115629.402500", "115630.682500", "115631.962500", "115633.242500", "115634.522500", "115635.802500", "115637.082500", "115638.362500", "115639.642500", "115640.922500", "115642.202500", "115643.482500", "115644.762500", "115646.042500", "115647.322500", "115648.602500", "115649.882500", "115651.162500", "115652.442500", "115653.722500", "115655.002500", "115656.282500", "115657.562500", "115658.842500", "115700.122500", "115701.402500", "115702.682500", "115703.962500", "115705.242500", "115706.522500", "115707.802500", "115709.082500", "115710.362500", "115711.642500", "115712.922500", "115714.202500", "115715.482500", "115716.762500", "115718.042500", "115719.322500", "115720.602500", "115721.882500", "115723.162500", "115724.442500", "115725.722500", "115727.002500", "115728.282500", "115729.562500", "115730.842500", "115732.122500", "115733.402500", "115734.682500", "115735.962500", "115737.242500", "115738.522500", "115739.802500", "115741.082500", "115742.362500", "115743.642500", "115744.922500", "115746.202500", "115747.482500", "115748.762500", "115750.042500", "115751.322500", "115752.602500", "115753.882500", "115755.162500", "115756.442500", "115757.722500", "115759.002500", "115800.282500", "115801.562500", "115802.842500", "115804.122500", "115805.402500", "115806.682500", "115807.962500", "115809.242500", "115810.522500", "115811.802500", "115813.082500", "115814.362500", "115815.642500", "115816.922500", "115818.202500", "115819.482500", "115820.762500", "115822.042500", "115823.322500", "115824.602500", "115825.882500", "115827.162500", "115828.442500", "115829.722500", "115831.002500", "115832.282500", "115833.562500", "115834.842500", "115836.122500", "115837.402500", "115838.682500", "115839.962500", "115841.242500", "115842.522500", "115843.802500", "115845.082500", "115846.362500", "115847.642500", "115848.922500", "115850.202500", "115851.482500", "115852.762500", "115854.042500", "115855.322500", "115856.602500", "115857.882500", "115859.162500", "115900.442500", "115901.722500", "115903.002500", "115904.282500", "115905.562500", "115906.842500", "115908.122500", "115909.402500", "115910.682500", "115911.962500", "115913.242500", "115914.522500", "115915.802500", "115917.082500", "115918.362500", "115919.642500", "115920.922500", "115922.202500", "115923.482500", "115924.762500", "115926.042500", "115927.322500", "115928.602500", "115929.882500", "115931.162500", "115932.442500", "115933.722500", "115935.002500", "115936.282500", "115937.562500", "115938.842500", "115940.122500", "115941.402500", "115942.682500", "115943.962500", "115945.242500", "115946.522500", "115947.802500", "115949.082500", "115950.362500", "115951.642500", "115952.922500", "115954.202500", "115955.482500", "115956.762500", "115958.042500", "115959.322500", "120000.602500", "120001.882500", "120003.162500", "120004.442500", "120005.722500", "120007.002500", "120008.282500", "120009.562500", "120010.842500", "120012.122500", "120013.402500", "120014.682500", "120015.962500", "120017.242500", "120018.522500", "120019.802500", "120021.082500", "120022.362500", "120023.642500", "120024.922500", "120026.202500", "120027.482500", "120028.762500", "120030.042500", "120031.322500", "120032.602500", "120033.882500", "120035.162500", "120036.442500", "120037.722500", "120039.002500", "120040.282500", "120041.562500", "120042.842500", "120044.122500", "120045.402500", "120046.682500", "120047.962500", "120049.242500", "120050.522500", "120051.802500", "120053.082500", "120054.362500", "120055.642500", "120056.922500", "120058.202500", "120059.482500", "120100.762500", "120102.042500", "120103.322500", "120104.602500", "120105.882500", "120107.162500", "120108.442500", "120109.722500", "120111.002500", "120112.282500", "120113.562500", "120114.842500", "120116.122500", "120117.402500", "120118.682500", "120119.962500", "120121.242500", "120122.522500", "120123.802500", "120125.082500", "120126.362500", "120127.642500", "120128.922500", "120130.202500", "120131.482500", "120132.762500", "120134.042500", "120135.322500", "120136.602500", "120137.882500", "120139.162500", "120140.442500", "120141.722500", "120143.002500", "120144.282500", "120145.562500", "120146.842500", "120148.122500", "120149.402500", "120150.682500", "120151.962500", "120153.242500", "120154.522500", "120155.802500", "120157.082500", "120158.362500", "120159.642500", "120200.922500", "120202.202500", "120203.482500", "120204.762500", "120206.042500", "120207.322500", "120208.602500", "120209.882500", "120211.162500", "120212.442500", "120213.722500", "120215.002500", "120216.282500", "120217.562500", "120218.842500", "120220.122500", "120221.402500", "120222.682500", "120223.962500", "120225.242500", "120226.522500", "120227.802500"],
      "ContentTime": ["115509.789000", "115509.792000", "115509.795000", "115509.798000", "115509.805000", "115509.808000", "115509.811000", "115509.814000", "115509.825000", "115509.828000", "115509.831000", "115509.834000", "115509.837000", "115509.840000", "115509.842000", "115509.846000", "115509.848000", "115509.851000", "115509.854000", "115509.857000", "115509.860000", "115509.863000", "115509.877000", "115509.880000", "115509.883000", "115509.886000", "115509.888000", "115509.891000", "115509.894000", "115549.784000", "115549.787000", "115549.790000", "115549.793000", "115549.796000", "115549.798000", "115549.801000", "115549.804000", "115549.807000", "115549.810000", "115549.813000", "115549.816000", "115549.819000", "115549.822000", "115549.824000", "115549.827000", "115549.831000", "115549.833000", "115549.836000", "115549.839000", "115549.842000", "115549.845000", "115549.848000", "115549.851000", "115549.854000", "115549.857000", "115549.860000", "115549.864000", "115549.868000", "115549.871000", "115549.874000", "115629.785000", "115629.788000", "115629.791000", "115629.794000", "115629.797000", "115629.799000", "115629.802000", "115629.805000", "115629.808000", "115629.811000", "115629.815000", "115629.818000", "115629.821000", "115629.824000", "115629.826000", "115629.829000", "115629.832000", "115629.835000", "115629.838000", "115629.841000", "115629.844000", "115629.847000", "115629.850000", "115629.852000", "115629.855000", "115629.858000", "115629.861000", "115629.864000", "115629.867000", "115629.882000", "115629.885000", "115629.888000", "115709.785000", "115709.789000", "115709.791000", "115709.794000", "115709.797000", "115709.800000", "115709.803000", "115709.806000", "115709.809000", "115709.812000", "115709.815000", "115709.817000", "115709.820000", "115709.823000", "115709.830000", "115709.833000", "115709.835000", "115709.838000", "115709.841000", "115709.844000", "115709.847000", "115709.850000", "115709.853000", "115709.856000", "115709.859000", "115709.862000", "115709.865000", "115709.868000", "115709.871000", "115709.874000", "115709.877000", "115749.784000", "115749.787000", "115749.790000", "115749.793000", "115749.796000", "115749.799000", "115749.802000", "115749.805000", "115749.808000", "115749.811000", "115749.813000", "115749.816000", "115749.819000", "115749.822000", "115749.825000", "115749.828000", "115749.831000", "115749.834000", "115749.837000", "115749.839000", "115749.842000", "115749.845000", "115749.848000", "115749.851000", "115749.854000", "115749.857000", "115749.860000", "115749.863000", "115749.865000", "115749.868000", "115749.871000", "115829.785000", "115829.788000", "115829.791000", "115829.794000", "115829.797000", "115829.800000", "115829.803000", "115829.805000", "115829.809000", "115829.811000", "115829.814000", "115829.817000", "115829.820000", "115829.823000", "115829.826000", "115829.829000", "115829.832000", "115829.835000", "115829.838000", "115829.841000", "115829.844000", "115829.847000", "115829.849000", "115829.852000", "115829.855000", "115829.858000", "115829.861000", "115829.870000", "115829.873000", "115829.876000", "115829.879000", "115909.785000", "115909.788000", "115909.791000", "115909.794000", "115909.797000", "115909.800000", "115909.802000", "115909.805000", "115909.808000", "115909.811000", "115909.814000", "115909.817000", "115909.820000", "115909.823000", "115909.826000", "115909.829000", "115909.831000", "115909.834000", "115909.837000", "115909.840000", "115909.843000", "115909.846000", "115909.849000", "115909.852000", "115909.855000", "115909.858000", "115909.861000", "115909.864000", "115909.867000", "115909.870000", "115909.873000", "115909.876000", "115949.784000", "115949.787000", "115949.790000", "115949.793000", "115949.796000", "115949.799000", "115949.802000", "115949.805000", "115949.808000", "115949.810000", "115949.813000", "115949.816000", "115949.819000", "115949.822000", "115949.825000", "115949.828000", "115949.831000", "115949.834000", "115949.837000", "115949.840000", "115949.842000", "115949.845000", "115949.848000", "115949.851000", "115949.854000", "115949.857000", "115949.860000", "115949.863000", "115949.865000", "115949.868000", "115949.871000", "120029.784000", "120029.787000", "120029.797000", "120029.800000", "120029.803000", "120029.806000", "120029.809000", "120029.812000", "120029.815000", "120029.818000", "120029.821000", "120029.824000", "120029.827000", "120029.830000", "120029.833000", "120029.836000", "120029.838000", "120029.841000", "120029.844000", "120029.847000", "120029.850000", "120029.853000", "120029.856000", "120029.859000", "120029.862000", "120029.865000", "120029.868000", "120029.871000", "120029.873000", "120029.876000", "120029.879000", "120109.785000", "120109.788000", "120109.801000", "120109.804000", "120109.807000", "120109.810000", "120109.813000", "120109.816000", "120109.819000", "120109.822000", "120109.825000", "120109.828000", "120109.831000", "120109.834000", "120109.837000", "120109.840000", "120109.843000", "120109.846000", "120109.849000", "120109.852000", "120109.855000", "120109.858000", "120109.861000", "120109.864000", "120109.867000", "120109.870000", "120109.873000", "120109.876000", "120109.879000", "120109.882000", "120109.885000", "120149.785000", "120149.788000", "120149.791000", "120149.794000", "120149.797000", "120149.799000", "120149.802000", "120149.805000", "120149.808000", "120149.811000", "120149.814000", "120149.817000", "120149.820000", "120149.823000", "120149.826000", "120149.829000", "120149.832000", "120149.835000", "120149.838000", "120149.841000", "120149.844000", "120149.847000", "120149.850000", "120149.853000", "120149.856000", "120149.858000", "120149.861000", "120149.864000", "120149.867000", "120149.870000", "120149.873000", "120149.876000", "120229.213000", "120229.222000", "120229.241000", "120229.244000", "120229.252000", "120229.263000", "120229.273000", "120229.276000", "120229.280000", "120229.283000", "120229.286000", "120229.296000", "120229.316000", "120229.319000", "120229.322000", "120229.325000", "120229.328000", "120229.332000", "120229.335000", "120229.338000", "120229.341000", "120229.344000", "120229.347000", "120229.350000", "120229.354000", "120229.357000", "120229.361000", "120229.364000", "120229.367000", "120229.371000", "120229.374000"],
      "InstanceCreationTime": ["115509.789000", "115509.792000", "115509.795000", "115509.798000", "115509.805000", "115509.808000", "115509.811000", "115509.814000", "115509.825000", "115509.828000", "115509.831000", "115509.834000", "115509.837000", "115509.840000", "115509.842000", "115509.846000", "115509.848000", "115509.851000", "115509.854000", "115509.857000", "115509.860000", "115509.863000", "115509.877000", "115509.880000", "115509.883000", "115509.886000", "115509.888000", "115509.891000", "115509.894000", "115549.784000", "115549.787000", "115549.790000", "115549.793000", "115549.796000", "115549.798000", "115549.801000", "115549.804000", "115549.807000", "115549.810000", "115549.813000", "115549.816000", "115549.819000", "115549.822000", "115549.824000", "115549.827000", "115549.831000", "115549.833000", "115549.836000", "115549.839000", "115549.842000", "115549.845000", "115549.848000", "115549.851000", "115549.854000", "115549.857000", "115549.860000", "115549.864000", "115549.868000", "115549.871000", "115549.874000", "115629.785000", "115629.788000", "115629.791000", "115629.794000", "115629.797000", "115629.799000", "115629.802000", "115629.805000", "115629.808000", "115629.811000", "115629.815000", "115629.818000", "115629.821000", "115629.824000", "115629.826000", "115629.829000", "115629.832000", "115629.835000", "115629.838000", "115629.841000", "115629.844000", "115629.847000", "115629.850000", "115629.852000", "115629.855000", "115629.858000", "115629.861000", "115629.864000", "115629.867000", "115629.882000", "115629.885000", "115629.888000", "115709.785000", "115709.789000", "115709.791000", "115709.794000", "115709.797000", "115709.800000", "115709.803000", "115709.806000", "115709.809000", "115709.812000", "115709.815000", "115709.817000", "115709.820000", "115709.823000", "115709.830000", "115709.833000", "115709.835000", "115709.838000", "115709.841000", "115709.844000", "115709.847000", "115709.850000", "115709.853000", "115709.856000", "115709.859000", "115709.862000", "115709.865000", "115709.868000", "115709.871000", "115709.874000", "115709.877000", "115749.784000", "115749.787000", "115749.790000", "115749.793000", "115749.796000", "115749.799000", "115749.802000", "115749.805000", "115749.808000", "115749.811000", "115749.813000", "115749.816000", "115749.819000", "115749.822000", "115749.825000", "115749.828000", "115749.831000", "115749.834000", "115749.837000", "115749.839000", "115749.842000", "115749.845000", "115749.848000", "115749.851000", "115749.854000", "115749.857000", "115749.860000", "115749.863000", "115749.865000", "115749.868000", "115749.871000", "115829.785000", "115829.788000", "115829.791000", "115829.794000", "115829.797000", "115829.800000", "115829.803000", "115829.805000", "115829.809000", "115829.811000", "115829.814000", "115829.817000", "115829.820000", "115829.823000", "115829.826000", "115829.829000", "115829.832000", "115829.835000", "115829.838000", "115829.841000", "115829.844000", "115829.847000", "115829.849000", "115829.852000", "115829.855000", "115829.858000", "115829.861000", "115829.870000", "115829.873000", "115829.876000", "115829.879000", "115909.785000", "115909.788000", "115909.791000", "115909.794000", "115909.797000", "115909.800000", "115909.802000", "115909.805000", "115909.808000", "115909.811000", "115909.814000", "115909.817000", "115909.820000", "115909.823000", "115909.826000", "115909.829000", "115909.831000", "115909.834000", "115909.837000", "115909.840000", "115909.843000", "115909.846000", "115909.849000", "115909.852000", "115909.855000", "115909.858000", "115909.861000", "115909.864000", "115909.867000", "115909.870000", "115909.873000", "115909.876000", "115949.784000", "115949.787000", "115949.790000", "115949.793000", "115949.796000", "115949.799000", "115949.802000", "115949.805000", "115949.808000", "115949.810000", "115949.813000", "115949.816000", "115949.819000", "115949.822000", "115949.825000", "115949.828000", "115949.831000", "115949.834000", "115949.837000", "115949.840000", "115949.842000", "115949.845000", "115949.848000", "115949.851000", "115949.854000", "115949.857000", "115949.860000", "115949.863000", "115949.865000", "115949.868000", "115949.871000", "120029.784000", "120029.787000", "120029.797000", "120029.800000", "120029.803000", "120029.806000", "120029.809000", "120029.812000", "120029.815000", "120029.818000", "120029.821000", "120029.824000", "120029.827000", "120029.830000", "120029.833000", "120029.836000", "120029.838000", "120029.841000", "120029.844000", "120029.847000", "120029.850000", "120029.853000", "120029.856000", "120029.859000", "120029.862000", "120029.865000", "120029.868000", "120029.871000", "120029.873000", "120029.876000", "120029.879000", "120109.785000", "120109.788000", "120109.801000", "120109.804000", "120109.807000", "120109.810000", "120109.813000", "120109.816000", "120109.819000", "120109.822000", "120109.825000", "120109.828000", "120109.831000", "120109.834000", "120109.837000", "120109.840000", "120109.843000", "120109.846000", "120109.849000", "120109.852000", "120109.855000", "120109.858000", "120109.861000", "120109.864000", "120109.867000", "120109.870000", "120109.873000", "120109.876000", "120109.879000", "120109.882000", "120109.885000", "120149.785000", "120149.788000", "120149.791000", "120149.794000", "120149.797000", "120149.799000", "120149.802000", "120149.805000", "120149.808000", "120149.811000", "120149.814000", "120149.817000", "120149.820000", "120149.823000", "120149.826000", "120149.829000", "120149.832000", "120149.835000", "120149.838000", "120149.841000", "120149.844000", "120149.847000", "120149.850000", "120149.853000", "120149.856000", "120149.858000", "120149.861000", "120149.864000", "120149.867000", "120149.870000", "120149.873000", "120149.876000", "120229.213000", "120229.222000", "120229.241000", "120229.244000", "120229.252000", "120229.263000", "120229.273000", "120229.276000", "120229.280000", "120229.283000", "120229.286000", "120229.296000", "120229.316000", "120229.319000", "120229.322000", "120229.325000", "120229.328000", "120229.332000", "120229.335000", "120229.338000", "120229.341000", "120229.344000", "120229.347000", "120229.350000", "120229.354000", "120229.357000", "120229.361000", "120229.364000", "120229.367000", "120229.371000", "120229.374000"],
      "InstanceNumber": [1, 2, 3, 4, 5, 6, 7, 8, 9, 10, 11, 12, 13, 14, 15, 16, 17, 18, 19, 20, 21, 22, 23, 24, 25, 26, 27, 28, 29, 30, 31, 32, 33, 34, 35, 36, 37, 38, 39, 40, 41, 42, 43, 44, 45, 46, 47, 48, 49, 50, 51, 52, 53, 54, 55, 56, 57, 58, 59, 60, 61, 62, 63, 64, 65, 66, 67, 68, 69, 70, 71, 72, 73, 74, 75, 76, 77, 78, 79, 80, 81, 82, 83, 84, 85, 86, 87, 88, 89, 90, 91, 92, 93, 94, 95, 96, 97, 98, 99, 100, 101, 102, 103, 104, 105, 106, 107, 108, 109, 110, 111, 112, 113, 114, 115, 116, 117, 118, 119, 120, 121, 122, 123, 124, 125, 126, 127, 128, 129, 130, 131, 132, 133, 134, 135, 136, 137, 138, 139, 140, 141, 142, 143, 144, 145, 146, 147, 148, 149, 150, 151, 152, 153, 154, 155, 156, 157, 158, 159, 160, 161, 162, 163, 164, 165, 166, 167, 168, 169, 170, 171, 172, 173, 174, 175, 176, 177, 178, 179, 180, 181, 182, 183, 184, 185, 186, 187, 188, 189, 190, 191, 192, 193, 194, 195, 196, 197, 198, 199, 200, 201, 202, 203, 204, 205, 206, 207, 208, 209, 210, 211, 212, 213, 214, 215, 216, 217, 218, 219, 220, 221, 222, 223, 224, 225, 226, 227, 228, 229, 230, 231, 232, 233, 234, 235, 236, 237, 238, 239, 240, 241, 242, 243, 244, 245, 246, 247, 248, 249, 250, 251, 252, 253, 254, 255, 256, 257, 258, 259, 260, 261, 262, 263, 264, 265, 266, 267, 268, 269, 270, 271, 272, 273, 274, 275, 276, 277, 278, 279, 280, 281, 282, 283, 284, 285, 286, 287, 288, 289, 290, 291, 292, 293, 294, 295, 296, 297, 298, 299, 300, 301, 302, 303, 304, 305, 306, 307, 308, 309, 310, 311, 312, 313, 314, 315, 316, 317, 318, 319, 320, 321, 322, 323, 324, 325, 326, 327, 328, 329, 330, 331, 332, 333, 334, 335, 336, 337, 338, 339, 340, 341, 342, 343, 344, 345, 346, 347, 348, 349, 350, 351, 352, 353, 354, 355, 356, 357, 358, 359, 360, 361, 362, 363, 364, 365, 366, 367, 368, 369, 370, 371, 372, 373],
