{
  "AcquisitionMatrixPE": 108,
  "AcquisitionNumber": 1,
  "AcquisitionTime": "14:43:50.230000",
  "BandwidthPerPixelPhaseEncode": 15.964,
  "BaseResolution": 108,
  "BodyPartExamined": "BRAIN",
  "ConsistencyInfo": "N4_VE11C_LATEST_20160120",
  "ConversionSoftware": "dcm2niix",
  "ConversionSoftwareVersion": "v1.0.20180622 GCC6.3.0",
  "DerivedVendorReportedEchoSpacing": 0.000580009,
  "DeviceSerialNumber": "66054",
  "DwellTime": 2.1e-06,
  "EchoTime": 0.031,
  "EchoTrainLength": 95,
  "EffectiveEchoSpacing": 0.000580009,
  "FlipAngle": 64,
  "ImageOrientationPatientDICOM": [0.995476, 0.0947812, -0.00667403, -0.0905954, 0.925642, -0.367396],
  "ImageType": [
    "ORIGINAL",
    "PRIMARY",
    "M",
    "ND",
    "MOSAIC"
],
  "InPlanePhaseEncodingDirectionDICOM": "COL",
  "InstitutionAddress": "Chemin_des_Mines_9_Geneve_District_CH_1211",
  "InstitutionName": "Fondation_Campus_Biotech_Geneva",
  "InstitutionalDepartmentName": "Department",
  "MRAcquisitionType": "2D",
  "MagneticFieldStrength": 3,
  "Manufacturer": "Siemens",
  "ManufacturersModelName": "Prisma",
  "Modality": "MR",
  "MultibandAccelerationFactor": 4,
  "PartialFourier": 0.875,
  "PatientPosition": "HFS",
  "PercentPhaseFOV": 100,
  "PhaseEncodingDirection": "j-",
  "PhaseEncodingSteps": 95,
  "PhaseResolution": 1,
  "PixelBandwidth": 2205,
  "ProcedureStepDescription": "J.DRM_Michael",
  "ProtocolName": "Rest_bold_s4_TR1.28",
  "PulseSequenceDetails": "%SiemensSeq%_ep2d_bold",
  "ReceiveCoilActiveElements": "HC1-7;NC1,2",
  "ReceiveCoilName": "HeadNeck_64",
  "ReconMatrixPE": 108,
  "RepetitionTime": 1.28,
  "SAR": 0.0776958,
  "ScanOptions": "PFP_FS",
  "ScanningSequence": "EP",
  "SequenceName": "_epfid2d1_108",
  "SequenceVariant": "SK",
  "SeriesDescription": "Rest_bold_s4_TR1.28",
  "SeriesNumber": 14,
  "ShimSetting": [-1245, -11681, 6462, 702, 131, -184, -135, 40],
  "SliceThickness": 2,
  "SliceTiming": [0.945, 0, 0.63, 0.08, 0.71, 0.1575, 0.7875, 0.2375, 0.8675, 0.395, 1.025, 0.4725, 1.1025, 0.5525, 1.1825, 0.315, 0.945, 0, 0.63, 0.08, 0.71, 0.1575, 0.7875, 0.2375, 0.8675, 0.395, 1.025, 0.4725, 1.1025, 0.5525, 1.1825, 0.315, 0.945, 0, 0.63, 0.08, 0.71, 0.1575, 0.7875, 0.2375, 0.8675, 0.395, 1.025, 0.4725, 1.1025, 0.5525, 1.1825, 0.315, 0.945, 0, 0.63, 0.08, 0.71, 0.1575, 0.7875, 0.2375, 0.8675, 0.395, 1.025, 0.4725, 1.1025, 0.5525, 1.1825, 0.315],
  "SoftwareVersions": "syngo_MR_E11",
  "SpacingBetweenSlices": 2,
  "StationName": "AWP66054",
  "TaskName": "rest",
  "TotalReadoutTime": 0.0620609,
  "TxRefAmp": 283.57,
  "dcmmeta_affine": [
    [-1.9817341566085815, -0.1803518831729889, 0.05728902667760849, 110.31637573242188],
    [-0.18868489563465118, 1.8427125215530396, -0.7326774001121521, -52.56259536743164],
    [-0.013286272063851357, 0.7313907146453857, 1.8600810766220093, -103.27725219726562],
    [0.0, 0.0, 0.0, 1.0]
],
  "dcmmeta_reorient_transform": [
    [0.0, -1.0, 0.0, 107.0],
    [1.0, 0.0, 0.0, 0.0],
    [0.0, 0.0, 1.0, 0.0],
    [0.0, 0.0, 0.0, 1.0]
],
  "dcmmeta_shape": [108, 108, 64, 250],
  "dcmmeta_slice_dim": 2,
  "dcmmeta_version": 0.6,
  "global": {
    "const": {
      "AccessionNumber": "",
      "AcquisitionMatrix": [108, 0, 0, 108],
      "AngioFlag": "N",
      "BitsAllocated": 16,
      "BitsStored": 12,
      "BodyPartExamined": "BRAIN",
      "Columns": 864,
      "EchoNumbers": 1,
      "EchoTime": 31.0,
      "EchoTrainLength": 95,
      "FlipAngle": 64.0,
      "HighBit": 11,
      "ImageOrientationPatient": [0.99547575150306, 0.09478125043896, -0.0066740343603, -0.0905953642417, 0.92564164945166, -0.3673962666908],
      "ImagePositionPatient": [-771.94123025671, -912.4758951453, 256.46946180423],
      "ImageType": [
        "ORIGINAL",
        "PRIMARY",
        "M",
        "ND",
        "MOSAIC"
],
      "ImagedNucleus": "1H",
      "ImagingFrequency": 123.257381,
      "InPlanePhaseEncodingDirection": "COL",
      "MRAcquisitionType": "2D",
      "MagneticFieldStrength": 3.0,
      "Manufacturer": "SIEMENS",
      "ManufacturerModelName": "Prisma",
      "Modality": "MR",
      "NumberOfAverages": 1.0,
      "NumberOfPhaseEncodingSteps": 95,
      "PercentPhaseFieldOfView": 100.0,
      "PercentSampling": 100.0,
      "PerformedProcedureStepStartTime": "135150.676000",
      "PhotometricInterpretation": "MONOCHROME2",
      "PixelBandwidth": 2205.0,
      "PixelRepresentation": 0,
      "PixelSpacing": [1.990740776062, 1.990740776062],
      "PositionReferenceIndicator": "",
      "ProtocolName": "Rest_bold_s4_TR1.28",
      "RepetitionTime": 1280.0,
      "Rows": 864,
      "SAR": 0.07769578069363,
      "SamplesPerPixel": 1,
      "ScanOptions": [
        "PFP",
        "FS"
],
      "ScanningSequence": "EP",
      "SequenceName": "*epfid2d1_108",
      "SequenceVariant": "SK",
      "SeriesDescription": "Rest_bold_s4_TR1.28",
      "SeriesNumber": 14,
      "SeriesTime": "144427.887000",
      "SliceLocation": -73.636361075655,
      "SliceThickness": 2.0,
      "SmallestImagePixelValue": 0,
      "SoftwareVersions": "syngo MR E11",
      "SpacingBetweenSlices": 2.0000000164926,
      "SpecificCharacterSet": "ISO_IR 100",
      "StudyID": "1",
      "StudyTime": "135150.606000",
      "TransmitCoilName": "Body",
      "VariableFlipAngleFlag": "N",
      "WindowCenterWidthExplanation": "Algo1",
      "dBdt": 0.0},
    "slices": {}
  },
  "time": {
    "samples": {
      "AcquisitionNumber": [1, 2, 3, 4, 5, 6, 7, 8, 9, 10, 11, 12, 13, 14, 15, 16, 17, 18, 19, 20, 21, 22, 23, 24, 25, 26, 27, 28, 29, 30, 31, 32, 33, 34, 35, 36, 37, 38, 39, 40, 41, 42, 43, 44, 45, 46, 47, 48, 49, 50, 51, 52, 53, 54, 55, 56, 57, 58, 59, 60, 61, 62, 63, 64, 65, 66, 67, 68, 69, 70, 71, 72, 73, 74, 75, 76, 77, 78, 79, 80, 81, 82, 83, 84, 85, 86, 87, 88, 89, 90, 91, 92, 93, 94, 95, 96, 97, 98, 99, 100, 101, 102, 103, 104, 105, 106, 107, 108, 109, 110, 111, 112, 113, 114, 115, 116, 117, 118, 119, 120, 121, 122, 123, 124, 125, 126, 127, 128, 129, 130, 131, 132, 133, 134, 135, 136, 137, 138, 139, 140, 141, 142, 143, 144, 145, 146, 147, 148, 149, 150, 151, 152, 153, 154, 155, 156, 157, 158, 159, 160, 161, 162, 163, 164, 165, 166, 167, 168, 169, 170, 171, 172, 173, 174, 175, 176, 177, 178, 179, 180, 181, 182, 183, 184, 185, 186, 187, 188, 189, 190, 191, 192, 193, 194, 195, 196, 197, 198, 199, 200, 201, 202, 203, 204, 205, 206, 207, 208, 209, 210, 211, 212, 213, 214, 215, 216, 217, 218, 219, 220, 221, 222, 223, 224, 225, 226, 227, 228, 229, 230, 231, 232, 233, 234, 235, 236, 237, 238, 239, 240, 241, 242, 243, 244, 245, 246, 247, 248, 249, 250],
      "AcquisitionTime": ["144350.230000", "144351.510000", "144352.790000", "144354.070000", "144355.350000", "144356.630000", "144357.910000", "144359.190000", "144400.470000", "144401.750000", "144403.030000", "144404.310000", "144405.590000", "144406.870000", "144408.150000", "144409.430000", "144410.710000", "144411.990000", "144413.270000", "144414.550000", "144415.830000", "144417.110000", "144418.390000", "144419.670000", "144420.950000", "144422.230000", "144423.510000", "144424.790000", "144426.070000", "144427.350000", "144428.630000", "144429.910000", "144431.190000", "144432.470000", "144433.750000", "144435.030000", "144436.310000", "144437.590000", "144438.870000", "144440.150000", "144441.430000", "144442.710000", "144443.990000", "144445.270000", "144446.550000", "144447.830000", "144449.110000", "144450.390000", "144451.670000", "144452.950000", "144454.230000", "144455.510000", "144456.790000", "144458.070000", "144459.350000", "144500.630000", "144501.910000", "144503.190000", "144504.470000", "144505.750000", "144507.030000", "144508.310000", "144509.590000", "144510.870000", "144512.150000", "144513.430000", "144514.710000", "144515.990000", "144517.270000", "144518.550000", "144519.830000", "144521.110000", "144522.390000", "144523.670000", "144524.950000", "144526.230000", "144527.510000", "144528.790000", "144530.070000", "144531.350000", "144532.630000", "144533.910000", "144535.190000", "144536.470000", "144537.750000", "144539.030000", "144540.310000", "144541.590000", "144542.870000", "144544.150000", "144545.430000", "144546.710000", "144547.990000", "144549.270000", "144550.550000", "144551.830000", "144553.110000", "144554.390000", "144555.670000", "144556.950000", "144558.230000", "144559.510000", "144600.790000", "144602.070000", "144603.350000", "144604.630000", "144605.910000", "144607.190000", "144608.470000", "144609.750000", "144611.030000", "144612.310000", "144613.590000", "144614.870000", "144616.150000", "144617.430000", "144618.710000", "144619.990000", "144621.270000", "144622.550000", "144623.830000", "144625.110000", "144626.390000", "144627.670000", "144628.950000", "144630.230000", "144631.510000", "144632.790000", "144634.070000", "144635.350000", "144636.630000", "144637.910000", "144639.190000", "144640.470000", "144641.750000", "144643.030000", "144644.310000", "144645.590000", "144646.870000", "144648.150000", "144649.430000", "144650.710000", "144651.990000", "144653.270000", "144654.550000", "144655.830000", "144657.110000", "144658.390000", "144659.670000", "144700.950000", "144702.230000", "144703.510000", "144704.790000", "144706.070000", "144707.350000", "144708.630000", "144709.910000", "144711.190000", "144712.470000", "144713.750000", "144715.030000", "144716.310000", "144717.590000", "144718.870000", "144720.150000", "144721.430000", "144722.710000", "144723.990000", "144725.270000", "144726.550000", "144727.830000", "144729.110000", "144730.390000", "144731.670000", "144732.950000", "144734.230000", "144735.510000", "144736.790000", "144738.070000", "144739.350000", "144740.630000", "144741.910000", "144743.190000", "144744.470000", "144745.750000", "144747.030000", "144748.310000", "144749.590000", "144750.870000", "144752.150000", "144753.430000", "144754.710000", "144755.990000", "144757.270000", "144758.550000", "144759.830000", "144801.110000", "144802.390000", "144803.670000", "144804.950000", "144806.230000", "144807.510000", "144808.790000", "144810.070000", "144811.350000", "144812.630000", "144813.910000", "144815.190000", "144816.470000", "144817.750000", "144819.030000", "144820.310000", "144821.590000", "144822.870000", "144824.150000", "144825.430000", "144826.710000", "144827.990000", "144829.270000", "144830.550000", "144831.830000", "144833.110000", "144834.390000", "144835.670000", "144836.950000", "144838.230000", "144839.510000", "144840.790000", "144842.070000", "144843.350000", "144844.630000", "144845.910000", "144847.190000", "144848.470000", "144849.750000", "144851.030000", "144852.310000", "144853.590000", "144854.870000", "144856.150000", "144857.430000", "144858.710000", "144859.990000", "144901.270000", "144902.550000", "144903.830000", "144905.110000", "144906.390000", "144907.670000", "144908.950000"],
      "ContentTime": ["144427.890000", "144427.894000", "144427.897000", "144427.900000", "144427.903000", "144427.906000", "144427.909000", "144427.912000", "144427.914000", "144427.917000", "144427.920000", "144427.923000", "144427.926000", "144427.929000", "144427.932000", "144427.935000", "144427.938000", "144427.940000", "144427.943000", "144427.946000", "144427.949000", "144427.952000", "144427.955000", "144427.963000", "144427.966000", "144427.968000", "144427.971000", "144427.974000", "144427.977000", "144507.886000", "144507.889000", "144507.892000", "144507.901000", "144507.903000", "144507.906000", "144507.909000", "144507.912000", "144507.915000", "144507.918000", "144507.921000", "144507.924000", "144507.927000", "144507.929000", "144507.932000", "144507.935000", "144507.938000", "144507.941000", "144507.944000", "144507.947000", "144507.949000", "144507.952000", "144507.955000", "144507.958000", "144507.961000", "144507.965000", "144507.967000", "144507.971000", "144507.973000", "144507.976000", "144507.979000", "144547.885000", "144547.888000", "144547.891000", "144547.894000", "144547.897000", "144547.909000", "144547.912000", "144547.915000", "144547.918000", "144547.920000", "144547.923000", "144547.926000", "144547.929000", "144547.932000", "144547.935000", "144547.938000", "144547.942000", "144547.945000", "144547.949000", "144547.952000", "144547.955000", "144547.958000", "144547.960000", "144547.963000", "144547.966000", "144547.969000", "144547.972000", "144547.975000", "144547.978000", "144547.981000", "144547.984000", "144627.886000", "144627.889000", "144627.892000", "144627.895000", "144627.898000", "144627.901000", "144627.903000", "144627.906000", "144627.909000", "144627.912000", "144627.915000", "144627.918000", "144627.925000", "144627.928000", "144627.931000", "144627.934000", "144627.937000", "144627.940000", "144627.943000", "144627.946000", "144627.948000", "144627.951000", "144627.954000", "144627.957000", "144627.960000", "144627.963000", "144627.965000", "144627.968000", "144627.971000", "144627.974000", "144627.977000", "144627.980000", "144707.886000", "144707.889000", "144707.892000", "144707.895000", "144707.908000", "144707.910000", "144707.913000", "144707.916000", "144707.919000", "144707.922000", "144707.925000", "144707.927000", "144707.930000", "144707.933000", "144707.936000", "144707.939000", "144707.942000", "144707.945000", "144707.948000", "144707.950000", "144707.953000", "144707.956000", "144707.959000", "144707.962000", "144707.965000", "144707.968000", "144707.970000", "144707.973000", "144707.976000", "144707.979000", "144707.982000", "144747.885000", "144747.888000", "144747.891000", "144747.894000", "144747.897000", "144747.899000", "144747.902000", "144747.905000", "144747.908000", "144747.911000", "144747.913000", "144747.916000", "144747.919000", "144747.922000", "144747.925000", "144747.928000", "144747.931000", "144747.933000", "144747.936000", "144747.939000", "144747.942000", "144747.945000", "144747.948000", "144747.951000", "144747.954000", "144747.964000", "144747.967000", "144747.970000", "144747.974000", "144747.977000", "144747.980000", "144827.885000", "144827.888000", "144827.891000", "144827.894000", "144827.897000", "144827.900000", "144827.903000", "144827.906000", "144827.909000", "144827.912000", "144827.914000", "144827.917000", "144827.920000", "144827.923000", "144827.926000", "144827.929000", "144827.932000", "144827.934000", "144827.937000", "144827.940000", "144827.943000", "144827.946000", "144827.949000", "144827.952000", "144827.954000", "144827.957000", "144827.960000", "144827.963000", "144827.966000", "144827.969000", "144827.972000", "144907.886000", "144907.889000", "144907.892000", "144907.895000", "144907.898000", "144907.901000", "144907.903000", "144907.906000", "144907.909000", "144907.912000", "144907.915000", "144907.918000", "144907.920000", "144907.923000", "144907.926000", "144907.929000", "144907.932000", "144907.935000", "144907.938000", "144907.941000", "144907.943000", "144907.946000", "144907.949000", "144907.952000", "144907.955000", "144907.958000", "144907.961000", "144907.963000", "144907.966000", "144907.969000", "144907.972000", "144907.975000", "144910.178000", "144910.182000"],
      "InstanceCreationTime": ["144427.890000", "144427.894000", "144427.897000", "144427.900000", "144427.903000", "144427.906000", "144427.909000", "144427.912000", "144427.914000", "144427.917000", "144427.920000", "144427.923000", "144427.926000", "144427.929000", "144427.932000", "144427.935000", "144427.938000", "144427.940000", "144427.943000", "144427.946000", "144427.949000", "144427.952000", "144427.955000", "144427.963000", "144427.966000", "144427.968000", "144427.971000", "144427.974000", "144427.977000", "144507.886000", "144507.889000", "144507.892000", "144507.901000", "144507.903000", "144507.906000", "144507.909000", "144507.912000", "144507.915000", "144507.918000", "144507.921000", "144507.924000", "144507.927000", "144507.929000", "144507.932000", "144507.935000", "144507.938000", "144507.941000", "144507.944000", "144507.947000", "144507.949000", "144507.952000", "144507.955000", "144507.958000", "144507.961000", "144507.965000", "144507.967000", "144507.971000", "144507.973000", "144507.976000", "144507.979000", "144547.885000", "144547.888000", "144547.891000", "144547.894000", "144547.897000", "144547.909000", "144547.912000", "144547.915000", "144547.918000", "144547.920000", "144547.923000", "144547.926000", "144547.929000", "144547.932000", "144547.935000", "144547.938000", "144547.942000", "144547.945000", "144547.949000", "144547.952000", "144547.955000", "144547.958000", "144547.960000", "144547.963000", "144547.966000", "144547.969000", "144547.972000", "144547.975000", "144547.978000", "144547.981000", "144547.984000", "144627.886000", "144627.889000", "144627.892000", "144627.895000", "144627.898000", "144627.901000", "144627.903000", "144627.906000", "144627.909000", "144627.912000", "144627.915000", "144627.918000", "144627.925000", "144627.928000", "144627.931000", "144627.934000", "144627.937000", "144627.940000", "144627.943000", "144627.946000", "144627.948000", "144627.951000", "144627.954000", "144627.957000", "144627.960000", "144627.963000", "144627.965000", "144627.968000", "144627.971000", "144627.974000", "144627.977000", "144627.980000", "144707.886000", "144707.889000", "144707.892000", "144707.895000", "144707.908000", "144707.910000", "144707.913000", "144707.916000", "144707.919000", "144707.922000", "144707.925000", "144707.927000", "144707.930000", "144707.933000", "144707.936000", "144707.939000", "144707.942000", "144707.945000", "144707.948000", "144707.950000", "144707.953000", "144707.956000", "144707.959000", "144707.962000", "144707.965000", "144707.968000", "144707.970000", "144707.973000", "144707.976000", "144707.979000", "144707.982000", "144747.885000", "144747.888000", "144747.891000", "144747.894000", "144747.897000", "144747.899000", "144747.902000", "144747.905000", "144747.908000", "144747.911000", "144747.913000", "144747.916000", "144747.919000", "144747.922000", "144747.925000", "144747.928000", "144747.931000", "144747.933000", "144747.936000", "144747.939000", "144747.942000", "144747.945000", "144747.948000", "144747.951000", "144747.954000", "144747.964000", "144747.967000", "144747.970000", "144747.974000", "144747.977000", "144747.980000", "144827.885000", "144827.888000", "144827.891000", "144827.894000", "144827.897000", "144827.900000", "144827.903000", "144827.906000", "144827.909000", "144827.912000", "144827.914000", "144827.917000", "144827.920000", "144827.923000", "144827.926000", "144827.929000", "144827.932000", "144827.934000", "144827.937000", "144827.940000", "144827.943000", "144827.946000", "144827.949000", "144827.952000", "144827.954000", "144827.957000", "144827.960000", "144827.963000", "144827.966000", "144827.969000", "144827.972000", "144907.886000", "144907.889000", "144907.892000", "144907.895000", "144907.898000", "144907.901000", "144907.903000", "144907.906000", "144907.909000", "144907.912000", "144907.915000", "144907.918000", "144907.920000", "144907.923000", "144907.926000", "144907.929000", "144907.932000", "144907.935000", "144907.938000", "144907.941000", "144907.943000", "144907.946000", "144907.949000", "144907.952000", "144907.955000", "144907.958000", "144907.961000", "144907.963000", "144907.966000", "144907.969000", "144907.972000", "144907.975000", "144910.178000", "144910.182000"],
      "InstanceNumber": [1, 2, 3, 4, 5, 6, 7, 8, 9, 10, 11, 12, 13, 14, 15, 16, 17, 18, 19, 20, 21, 22, 23, 24, 25, 26, 27, 28, 29, 30, 31, 32, 33, 34, 35, 36, 37, 38, 39, 40, 41, 42, 43, 44, 45, 46, 47, 48, 49, 50, 51, 52, 53, 54, 55, 56, 57, 58, 59, 60, 61, 62, 63, 64, 65, 66, 67, 68, 69, 70, 71, 72, 73, 74, 75, 76, 77, 78, 79, 80, 81, 82, 83, 84, 85, 86, 87, 88, 89, 90, 91, 92, 93, 94, 95, 96, 97, 98, 99, 100, 101, 102, 103, 104, 105, 106, 107, 108, 109, 110, 111, 112, 113, 114, 115, 116, 117, 118, 119, 120, 121, 122, 123, 124, 125, 126, 127, 128, 129, 130, 131, 132, 133, 134, 135, 136, 137, 138, 139, 140, 141, 142, 143, 144, 145, 146, 147, 148, 149, 150, 151, 152, 153, 154, 155, 156, 157, 158, 159, 160, 161, 162, 163, 164, 165, 166, 167, 168, 169, 170, 171, 172, 173, 174, 175, 176, 177, 178, 179, 180, 181, 182, 183, 184, 185, 186, 187, 188, 189, 190, 191, 192, 193, 194, 195, 196, 197, 198, 199, 200, 201, 202, 203, 204, 205, 206, 207, 208, 209, 210, 211, 212, 213, 214, 215, 216, 217, 218, 219, 220, 221, 222, 223, 224, 225, 226, 227, 228, 229, 230, 231, 232, 233, 234, 235, 236, 237, 238, 239, 240, 241, 242, 243, 244, 245, 246, 247, 248, 249, 250],
      "LargestImagePixelValue": [2332, 2862, 2407, 2183, 2246, 2606, 2270, 2173, 2881, 2274, 2225, 2285, 2307, 2196, 2326, 2404, 2229, 2191, 3107, 2324, 2248, 2249, 2435, 2353, 2265, 2473, 2322, 2311, 2743, 2285, 2461, 2198, 2300, 2276, 2117, 2319, 2063, 2210, 2098, 2152, 2401, 2232, 2153, 2153, 2927, 2548, 2115, 2395, 2264, 2567, 2587, 2248, 2295, 2578, 2113, 2596, 2064, 2336, 2156, 2129, 2228, 2110, 2192, 2180, 2458, 2180, 2257, 2788, 2218, 2273, 2110, 2296, 2576, 2729, 2181, 2233, 2371, 2433, 2606, 2425, 2519, 2549, 2204, 2427, 2507, 2257, 2207, 2509, 2164, 2210, 2211, 2182, 2243, 2851, 2331, 2792, 2134, 2413, 2138, 2579, 2319, 2301, 2541, 2198, 2404, 2197, 2187, 2160, 2197, 2186, 2197, 2364, 2521, 2223, 2164, 2181, 2232, 2150, 2114, 2234, 2234, 2427, 2198, 2186, 2204, 2212, 2216, 2148, 2210, 2165, 2142, 2156, 2115, 2190, 2214, 2204, 2145, 2165, 2102, 2091, 2183, 2217, 2312, 2230, 2294, 2290, 2114, 2138, 2109, 2330, 2284, 2440, 2120, 2084, 2217, 2098, 2142, 2226, 2450, 2278, 2264, 2214, 2178, 2234, 2158, 2135, 2179, 2188, 2150, 2080, 2262, 2147, 2270, 2138, 2129, 2200, 2477, 2282, 2360, 2174, 2085, 2187, 2202, 2200, 2302, 2264, 2407, 2276, 2341, 2387, 2281, 2144, 2474, 2354, 2229, 2307, 2209, 2285, 2259, 2180, 2252, 2361, 2185, 2308, 2208, 2266, 2150, 1823, 1896, 2118, 2302, 2336, 2329, 2236, 2201, 2173, 2170, 2151, 2136, 2112, 2131, 2157, 2112, 2121, 2137, 2121, 2123, 2194, 2125, 2289, 2139, 2207, 2094, 2140, 2203, 2169, 2211, 2240, 2145, 2198, 2222, 2187, 2442, 2361, 2272, 2391, 2176, 2310, 2172, 2274],
      "WindowCenter": [591.0, 594.0, 589.0, 587.0, 588.0, 591.0, 589.0, 588.0, 594.0, 590.0, 590.0, 590.0, 590.0, 589.0, 590.0, 591.0, 589.0, 589.0, 596.0, 591.0, 591.0, 591.0, 595.0, 592.0, 589.0, 592.0, 591.0, 591.0, 594.0, 590.0, 591.0, 588.0, 588.0, 587.0, 585.0, 586.0, 584.0, 587.0, 585.0, 587.0, 590.0, 588.0, 588.0, 587.0, 593.0, 590.0, 586.0, 589.0, 588.0, 591.0, 591.0, 588.0, 589.0, 592.0, 587.0, 592.0, 586.0, 589.0, 587.0, 587.0, 588.0, 587.0, 589.0, 589.0, 592.0, 589.0, 589.0, 593.0, 588.0, 589.0, 584.0, 591.0, 592.0, 593.0, 587.0, 589.0, 590.0, 591.0, 591.0, 589.0, 588.0, 588.0, 585.0, 587.0, 588.0, 586.0, 585.0, 589.0, 586.0, 588.0, 588.0, 588.0, 589.0, 594.0, 591.0, 594.0, 588.0, 590.0, 587.0, 591.0, 587.0, 590.0, 591.0, 588.0, 591.0, 588.0, 587.0, 587.0, 587.0, 587.0, 587.0, 589.0, 590.0, 587.0, 586.0, 586.0, 587.0, 587.0, 587.0, 589.0, 589.0, 591.0, 587.0, 588.0, 587.0, 588.0, 587.0, 588.0, 588.0, 588.0, 589.0, 589.0, 589.0, 590.0, 590.0, 589.0, 588.0, 589.0, 588.0, 588.0, 589.0, 589.0, 590.0, 589.0, 590.0, 590.0, 588.0, 589.0, 589.0, 592.0, 592.0, 593.0, 589.0, 589.0, 590.0, 588.0, 589.0, 589.0, 590.0, 589.0, 589.0, 588.0, 587.0, 584.0, 588.0, 589.0, 589.0, 588.0, 586.0, 583.0, 583.0, 582.0, 583.0, 585.0, 586.0, 586.0, 572.0, 591.0, 588.0, 586.0, 586.0, 587.0, 588.0, 587.0, 587.0, 586.0, 589.0, 588.0, 589.0, 590.0, 588.0, 587.0, 590.0, 590.0, 588.0, 589.0, 587.0, 588.0, 588.0, 587.0, 589.0, 589.0, 586.0, 588.0, 587.0, 587.0, 586.0, 580.0, 582.0, 586.0, 588.0, 589.0, 588.0, 587.0, 586.0, 586.0, 584.0, 583.0, 583.0, 583.0, 583.0, 583.0, 584.0, 584.0, 584.0, 585.0, 585.0, 586.0, 587.0, 588.0, 586.0, 586.0, 584.0, 584.0, 584.0, 584.0, 586.0, 586.0, 585.0, 585.0, 586.0, 585.0, 588.0, 587.0, 586.0, 587.0, 585.0, 588.0, 587.0, 589.0],
      "WindowWidth": [1243.0, 1245.0, 1238.0, 1234.0, 1235.0, 1240.0, 1237.0, 1236.0, 1247.0, 1239.0, 1239.0, 1239.0, 1239.0, 1237.0, 1240.0, 1241.0, 1238.0, 1238.0, 1249.0, 1242.0, 1242.0, 1241.0, 1249.0, 1243.0, 1237.0, 1243.0, 1242.0, 1242.0, 1246.0, 1239.0, 1241.0, 1234.0, 1235.0, 1232.0, 1229.0, 1231.0, 1228.0, 1232.0, 1230.0, 1233.0, 1238.0, 1236.0, 1235.0, 1233.0, 1243.0, 1238.0, 1232.0, 1237.0, 1235.0, 1240.0, 1240.0, 1236.0, 1237.0, 1242.0, 1234.0, 1241.0, 1232.0, 1236.0, 1234.0, 1233.0, 1236.0, 1234.0, 1238.0, 1237.0, 1242.0, 1237.0, 1238.0, 1244.0, 1236.0, 1238.0, 1228.0, 1241.0, 1243.0, 1244.0, 1233.0, 1237.0, 1239.0, 1240.0, 1239.0, 1235.0, 1234.0, 1234.0, 1228.0, 1232.0, 1234.0, 1230.0, 1229.0, 1235.0, 1231.0, 1235.0, 1236.0, 1235.0, 1236.0, 1246.0, 1240.0, 1247.0, 1235.0, 1239.0, 1233.0, 1240.0, 1232.0, 1240.0, 1241.0, 1236.0, 1240.0, 1236.0, 1234.0, 1233.0, 1234.0, 1232.0, 1233.0, 1235.0, 1237.0, 1233.0, 1232.0, 1231.0, 1233.0, 1233.0, 1234.0, 1236.0, 1236.0, 1239.0, 1232.0, 1236.0, 1233.0, 1234.0, 1233.0, 1235.0, 1234.0, 1236.0, 1237.0, 1238.0, 1238.0, 1240.0, 1238.0, 1238.0, 1235.0, 1237.0, 1236.0, 1236.0, 1237.0, 1236.0, 1239.0, 1237.0, 1238.0, 1239.0, 1236.0, 1237.0, 1237.0, 1242.0, 1242.0, 1244.0, 1237.0, 1237.0, 1240.0, 1235.0, 1238.0, 1235.0, 1237.0, 1236.0, 1236.0, 1235.0, 1233.0, 1225.0, 1235.0, 1237.0, 1236.0, 1234.0, 1231.0, 1223.0, 1222.0, 1222.0, 1224.0, 1228.0, 1231.0, 1230.0, 1200.0, 1241.0, 1234.0, 1230.0, 1231.0, 1233.0, 1234.0, 1233.0, 1232.0, 1230.0, 1235.0, 1233.0, 1235.0, 1237.0, 1235.0, 1234.0, 1238.0, 1238.0, 1234.0, 1236.0, 1234.0, 1235.0, 1234.0, 1233.0, 1235.0, 1236.0, 1231.0, 1234.0, 1232.0, 1231.0, 1230.0, 1220.0, 1224.0, 1230.0, 1235.0, 1236.0, 1235.0, 1232.0, 1230.0, 1230.0, 1227.0, 1224.0, 1223.0, 1224.0, 1224.0, 1225.0, 1225.0, 1225.0, 1226.0, 1229.0, 1229.0, 1231.0, 1232.0, 1235.0, 1232.0, 1230.0, 1227.0, 1227.0, 1227.0, 1227.0, 1229.0, 1230.0, 1228.0, 1229.0, 1230.0, 1229.0, 1232.0, 1231.0, 1230.0, 1232.0, 1229.0, 1234.0, 1233.0, 1236.0]
    },
    "slices": {}
  }
}