{
  "AcquisitionMatrixPE": 108,
  "AcquisitionNumber": 1,
  "AcquisitionTime": "11:37:57.997500",
  "BandwidthPerPixelPhaseEncode": 15.964,
  "BaseResolution": 108,
  "BodyPartExamined": "BRAIN",
  "ConsistencyInfo": "N4_VE11C_LATEST_20160120",
  "ConversionSoftware": "dcm2niix",
  "ConversionSoftwareVersion": "v1.0.20180622 GCC6.3.0",
  "DerivedVendorReportedEchoSpacing": 0.000580009,
  "DeviceSerialNumber": "66054",
  "DwellTime": 2.1e-06,
  "EchoTime": 0.031,
  "EchoTrainLength": 95,
  "EffectiveEchoSpacing": 0.000580009,
  "FlipAngle": 64,
  "ImageOrientationPatientDICOM": [0.99926, 0.0378062, -0.00706787, -0.0366412, 0.879903, -0.473738],
  "ImageType": [
    "ORIGINAL",
    "PRIMARY",
    "M",
    "ND",
    "MOSAIC"
],
  "InPlanePhaseEncodingDirectionDICOM": "COL",
  "InstitutionAddress": "Chemin_des_Mines_9_Geneve_District_CH_1211",
  "InstitutionName": "Fondation_Campus_Biotech_Geneva",
  "InstitutionalDepartmentName": "Department",
  "MRAcquisitionType": "2D",
  "MagneticFieldStrength": 3,
  "Manufacturer": "Siemens",
  "ManufacturersModelName": "Prisma",
  "Modality": "MR",
  "MultibandAccelerationFactor": 4,
  "PartialFourier": 0.875,
  "PatientPosition": "HFS",
  "PercentPhaseFOV": 100,
  "PhaseEncodingDirection": "j-",
  "PhaseEncodingSteps": 95,
  "PhaseResolution": 1,
  "PixelBandwidth": 2205,
  "ProcedureStepDescription": "J.DRM_Michael",
  "ProtocolName": "Run3_bold_s4_TR1.28",
  "PulseSequenceDetails": "%SiemensSeq%_ep2d_bold",
  "ReceiveCoilActiveElements": "HC1-7;NC1,2",
  "ReceiveCoilName": "HeadNeck_64",
  "ReconMatrixPE": 108,
  "RepetitionTime": 1.28,
  "SAR": 0.0846619,
  "ScanOptions": "PFP_FS",
  "ScanningSequence": "EP",
  "SequenceName": "_epfid2d1_108",
  "SequenceVariant": "SK",
  "SeriesDescription": "Run3_bold_s4_TR1.28",
  "SeriesNumber": 8,
  "ShimSetting": [-1273, -11660, 6460, 542, 33, -154, -30, 87],
  "SliceThickness": 2,
  "SliceTiming": [0.945, 0, 0.63, 0.08, 0.71, 0.1575, 0.7875, 0.2375, 0.8675, 0.395, 1.025, 0.4725, 1.1025, 0.5525, 1.1825, 0.315, 0.945, 0, 0.63, 0.08, 0.71, 0.1575, 0.7875, 0.2375, 0.8675, 0.395, 1.025, 0.4725, 1.1025, 0.5525, 1.1825, 0.315, 0.945, 0, 0.63, 0.08, 0.71, 0.1575, 0.7875, 0.2375, 0.8675, 0.395, 1.025, 0.4725, 1.1025, 0.5525, 1.1825, 0.315, 0.945, 0, 0.63, 0.08, 0.71, 0.1575, 0.7875, 0.2375, 0.8675, 0.395, 1.025, 0.4725, 1.1025, 0.5525, 1.1825, 0.315],
  "SoftwareVersions": "syngo_MR_E11",
  "SpacingBetweenSlices": 2,
  "StationName": "AWP66054",
  "TaskName": "main",
  "TotalReadoutTime": 0.0620609,
  "TxRefAmp": 297.377,
  "dcmmeta_affine": [
    [-1.9892678260803223, -0.07294318825006485, 0.023382361978292465, 113.90023803710938],
    [-0.07526233792304993, 1.7516595125198364, -0.9472925662994385, -53.67198944091797],
    [-0.014070301316678524, 0.9430891871452332, 1.7612751722335815, -104.31133270263672],
    [0.0, 0.0, 0.0, 1.0]
],
  "dcmmeta_reorient_transform": [
    [0.0, -1.0, 0.0, 107.0],
    [1.0, 0.0, 0.0, 0.0],
    [0.0, 0.0, 1.0, 0.0],
    [0.0, 0.0, 0.0, 1.0]
],
  "dcmmeta_shape": [108, 108, 64, 373],
  "dcmmeta_slice_dim": 2,
  "dcmmeta_version": 0.6,
  "global": {
    "const": {
      "AccessionNumber": "",
      "AcquisitionMatrix": [108, 0, 0, 108],
      "AngioFlag": "N",
      "BitsAllocated": 16,
      "BitsStored": 12,
      "BodyPartExamined": "BRAIN",
      "Columns": 864,
      "EchoNumbers": 1,
      "EchoTime": 31.0,
      "EchoTrainLength": 95,
      "FlipAngle": 64.0,
      "HighBit": 11,
      "ImageOrientationPatient": [0.99926009453501, 0.03780619856652, -0.0070678723694, -0.0366412302155, 0.87990335019998, -0.4737378120386],
      "ImagePositionPatient": [-830.46602589264, -824.33202113886, 358.40549358365],
      "ImageType": [
        "ORIGINAL",
        "PRIMARY",
        "M",
        "ND",
        "MOSAIC"
],
      "ImagedNucleus": "1H",
      "ImagingFrequency": 123.257394,
      "InPlanePhaseEncodingDirection": "COL",
      "MRAcquisitionType": "2D",
      "MagneticFieldStrength": 3.0,
      "Manufacturer": "SIEMENS",
      "ManufacturerModelName": "Prisma",
      "Modality": "MR",
      "NumberOfAverages": 1.0,
      "NumberOfPhaseEncodingSteps": 95,
      "PercentPhaseFieldOfView": 100.0,
      "PercentSampling": 100.0,
      "PerformedProcedureStepStartTime": "110443.608000",
      "PhotometricInterpretation": "MONOCHROME2",
      "PixelBandwidth": 2205.0,
      "PixelRepresentation": 0,
      "PixelSpacing": [1.990740776062, 1.990740776062],
      "PositionReferenceIndicator": "",
      "ProtocolName": "Run3_bold_s4_TR1.28",
      "RepetitionTime": 1280.0,
      "Rows": 864,
      "SAR": 0.08466188163534,
      "SamplesPerPixel": 1,
      "ScanOptions": [
        "PFP",
        "FS"
],
      "ScanningSequence": "EP",
      "SequenceName": "*epfid2d1_108",
      "SequenceVariant": "SK",
      "SeriesDescription": "Run3_bold_s4_TR1.28",
      "SeriesNumber": 8,
      "SeriesTime": "113825.933000",
      "SliceLocation": -65.107312136928,
      "SliceThickness": 2.0,
      "SmallestImagePixelValue": 0,
      "SoftwareVersions": "syngo MR E11",
      "SpacingBetweenSlices": 2.0000000300754,
      "SpecificCharacterSet": "ISO_IR 100",
      "StudyID": "1",
      "StudyTime": "110443.533000",
      "TransmitCoilName": "Body",
      "VariableFlipAngleFlag": "N",
      "WindowCenterWidthExplanation": "Algo1",
      "dBdt": 0.0},
    "slices": {}
  },
  "time": {
    "samples": {
      "AcquisitionNumber": [1, 2, 3, 4, 5, 6, 7, 8, 9, 10, 11, 12, 13, 14, 15, 16, 17, 18, 19, 20, 21, 22, 23, 24, 25, 26, 27, 28, 29, 30, 31, 32, 33, 34, 35, 36, 37, 38, 39, 40, 41, 42, 43, 44, 45, 46, 47, 48, 49, 50, 51, 52, 53, 54, 55, 56, 57, 58, 59, 60, 61, 62, 63, 64, 65, 66, 67, 68, 69, 70, 71, 72, 73, 74, 75, 76, 77, 78, 79, 80, 81, 82, 83, 84, 85, 86, 87, 88, 89, 90, 91, 92, 93, 94, 95, 96, 97, 98, 99, 100, 101, 102, 103, 104, 105, 106, 107, 108, 109, 110, 111, 112, 113, 114, 115, 116, 117, 118, 119, 120, 121, 122, 123, 124, 125, 126, 127, 128, 129, 130, 131, 132, 133, 134, 135, 136, 137, 138, 139, 140, 141, 142, 143, 144, 145, 146, 147, 148, 149, 150, 151, 152, 153, 154, 155, 156, 157, 158, 159, 160, 161, 162, 163, 164, 165, 166, 167, 168, 169, 170, 171, 172, 173, 174, 175, 176, 177, 178, 179, 180, 181, 182, 183, 184, 185, 186, 187, 188, 189, 190, 191, 192, 193, 194, 195, 196, 197, 198, 199, 200, 201, 202, 203, 204, 205, 206, 207, 208, 209, 210, 211, 212, 213, 214, 215, 216, 217, 218, 219, 220, 221, 222, 223, 224, 225, 226, 227, 228, 229, 230, 231, 232, 233, 234, 235, 236, 237, 238, 239, 240, 241, 242, 243, 244, 245, 246, 247, 248, 249, 250, 251, 252, 253, 254, 255, 256, 257, 258, 259, 260, 261, 262, 263, 264, 265, 266, 267, 268, 269, 270, 271, 272, 273, 274, 275, 276, 277, 278, 279, 280, 281, 282, 283, 284, 285, 286, 287, 288, 289, 290, 291, 292, 293, 294, 295, 296, 297, 298, 299, 300, 301, 302, 303, 304, 305, 306, 307, 308, 309, 310, 311, 312, 313, 314, 315, 316, 317, 318, 319, 320, 321, 322, 323, 324, 325, 326, 327, 328, 329, 330, 331, 332, 333, 334, 335, 336, 337, 338, 339, 340, 341, 342, 343, 344, 345, 346, 347, 348, 349, 350, 351, 352, 353, 354, 355, 356, 357, 358, 359, 360, 361, 362, 363, 364, 365, 366, 367, 368, 369, 370, 371, 372, 373],
      "AcquisitionTime": ["113757.997500", "113759.277500", "113800.557500", "113801.837500", "113803.117500", "113804.397500", "113805.677500", "113806.957500", "113808.237500", "113809.517500", "113810.797500", "113812.077500", "113813.357500", "113814.637500", "113815.917500", "113817.197500", "113818.477500", "113819.757500", "113821.037500", "113822.317500", "113823.597500", "113824.877500", "113826.157500", "113827.437500", "113828.717500", "113829.997500", "113831.277500", "113832.557500", "113833.837500", "113835.117500", "113836.397500", "113837.677500", "113838.957500", "113840.237500", "113841.517500", "113842.797500", "113844.077500", "113845.357500", "113846.637500", "113847.917500", "113849.197500", "113850.477500", "113851.757500", "113853.037500", "113854.317500", "113855.597500", "113856.877500", "113858.157500", "113859.437500", "113900.717500", "113901.997500", "113903.277500", "113904.557500", "113905.837500", "113907.117500", "113908.397500", "113909.677500", "113910.957500", "113912.237500", "113913.517500", "113914.797500", "113916.077500", "113917.357500", "113918.637500", "113919.917500", "113921.197500", "113922.477500", "113923.757500", "113925.037500", "113926.317500", "113927.597500", "113928.877500", "113930.157500", "113931.437500", "113932.717500", "113933.997500", "113935.277500", "113936.557500", "113937.837500", "113939.117500", "113940.397500", "113941.677500", "113942.957500", "113944.237500", "113945.517500", "113946.797500", "113948.077500", "113949.357500", "113950.637500", "113951.917500", "113953.197500", "113954.477500", "113955.757500", "113957.037500", "113958.317500", "113959.597500", "114000.877500", "114002.157500", "114003.437500", "114004.717500", "114005.997500", "114007.277500", "114008.557500", "114009.837500", "114011.117500", "114012.397500", "114013.677500", "114014.957500", "114016.237500", "114017.517500", "114018.797500", "114020.077500", "114021.357500", "114022.637500", "114023.917500", "114025.197500", "114026.477500", "114027.757500", "114029.037500", "114030.317500", "114031.597500", "114032.877500", "114034.157500", "114035.437500", "114036.717500", "114037.997500", "114039.277500", "114040.557500", "114041.837500", "114043.117500", "114044.397500", "114045.677500", "114046.957500", "114048.237500", "114049.517500", "114050.797500", "114052.077500", "114053.357500", "114054.637500", "114055.917500", "114057.197500", "114058.477500", "114059.757500", "114101.037500", "114102.317500", "114103.597500", "114104.877500", "114106.157500", "114107.437500", "114108.717500", "114109.997500", "114111.277500", "114112.557500", "114113.837500", "114115.117500", "114116.397500", "114117.677500", "114118.957500", "114120.237500", "114121.517500", "114122.797500", "114124.077500", "114125.357500", "114126.637500", "114127.917500", "114129.197500", "114130.477500", "114131.757500", "114133.037500", "114134.317500", "114135.597500", "114136.877500", "114138.157500", "114139.437500", "114140.717500", "114141.997500", "114143.277500", "114144.557500", "114145.837500", "114147.117500", "114148.397500", "114149.677500", "114150.957500", "114152.237500", "114153.517500", "114154.797500", "114156.077500", "114157.357500", "114158.637500", "114159.917500", "114201.197500", "114202.477500", "114203.757500", "114205.037500", "114206.317500", "114207.597500", "114208.877500", "114210.157500", "114211.437500", "114212.717500", "114213.997500", "114215.277500", "114216.557500", "114217.837500", "114219.117500", "114220.397500", "114221.677500", "114222.957500", "114224.237500", "114225.517500", "114226.797500", "114228.077500", "114229.357500", "114230.637500", "114231.917500", "114233.197500", "114234.477500", "114235.757500", "114237.037500", "114238.317500", "114239.597500", "114240.877500", "114242.157500", "114243.437500", "114244.717500", "114245.997500", "114247.277500", "114248.557500", "114249.837500", "114251.117500", "114252.397500", "114253.677500", "114254.957500", "114256.237500", "114257.517500", "114258.797500", "114300.077500", "114301.357500", "114302.637500", "114303.917500", "114305.197500", "114306.477500", "114307.757500", "114309.037500", "114310.317500", "114311.597500", "114312.877500", "114314.157500", "114315.437500", "114316.717500", "114317.997500", "114319.277500", "114320.557500", "114321.837500", "114323.117500", "114324.397500", "114325.677500", "114326.957500", "114328.237500", "114329.517500", "114330.797500", "114332.077500", "114333.357500", "114334.637500", "114335.917500", "114337.197500", "114338.477500", "114339.757500", "114341.037500", "114342.317500", "114343.597500", "114344.877500", "114346.157500", "114347.437500", "114348.717500", "114349.997500", "114351.277500", "114352.557500", "114353.837500", "114355.117500", "114356.397500", "114357.677500", "114358.957500", "114400.237500", "114401.517500", "114402.797500", "114404.077500", "114405.357500", "114406.637500", "114407.917500", "114409.197500", "114410.477500", "114411.757500", "114413.037500", "114414.317500", "114415.597500", "114416.877500", "114418.157500", "114419.437500", "114420.717500", "114421.997500", "114423.277500", "114424.557500", "114425.837500", "114427.117500", "114428.397500", "114429.677500", "114430.957500", "114432.237500", "114433.517500", "114434.797500", "114436.077500", "114437.357500", "114438.637500", "114439.917500", "114441.197500", "114442.477500", "114443.757500", "114445.037500", "114446.317500", "114447.597500", "114448.877500", "114450.157500", "114451.437500", "114452.717500", "114453.997500", "114455.277500", "114456.557500", "114457.837500", "114459.117500", "114500.397500", "114501.677500", "114502.957500", "114504.237500", "114505.517500", "114506.797500", "114508.077500", "114509.357500", "114510.637500", "114511.917500", "114513.197500", "114514.477500", "114515.757500", "114517.037500", "114518.317500", "114519.597500", "114520.877500", "114522.157500", "114523.437500", "114524.717500", "114525.997500", "114527.277500", "114528.557500", "114529.837500", "114531.117500", "114532.397500", "114533.677500", "114534.957500", "114536.237500", "114537.517500", "114538.797500", "114540.077500", "114541.357500", "114542.637500", "114543.917500", "114545.197500", "114546.477500", "114547.757500", "114549.037500", "114550.317500", "114551.597500", "114552.877500", "114554.157500"],
      "ContentTime": ["113825.937000", "113825.941000", "113825.944000", "113825.946000", "113825.950000", "113825.961000", "113825.965000", "113825.973000", "113825.976000", "113825.979000", "113825.981000", "113825.989000", "113825.992000", "113825.995000", "113825.997000", "113826.000000", "113826.003000", "113826.006000", "113826.009000", "113826.012000", "113826.015000", "113905.922000", "113905.925000", "113905.928000", "113905.931000", "113905.934000", "113905.937000", "113905.946000", "113905.949000", "113905.952000", "113905.954000", "113905.957000", "113905.960000", "113905.963000", "113905.966000", "113905.969000", "113905.971000", "113905.975000", "113905.977000", "113905.980000", "113905.983000", "113905.986000", "113905.989000", "113905.992000", "113905.995000", "113905.998000", "113906.002000", "113906.004000", "113906.007000", "113906.010000", "113906.013000", "113906.016000", "113925.921000", "113925.933000", "113925.936000", "113925.939000", "113925.942000", "113925.945000", "113925.947000", "113925.950000", "113925.953000", "113925.956000", "113925.959000", "113925.962000", "113925.965000", "113925.972000", "113925.975000", "113925.978000", "114005.921000", "114005.924000", "114005.927000", "114005.930000", "114005.933000", "114005.936000", "114005.939000", "114005.942000", "114005.945000", "114005.947000", "114005.950000", "114005.953000", "114005.956000", "114005.959000", "114005.962000", "114005.965000", "114005.967000", "114005.970000", "114005.973000", "114005.976000", "114005.979000", "114005.982000", "114005.985000", "114005.988000", "114005.991000", "114005.993000", "114005.996000", "114006.000000", "114006.003000", "114006.006000", "114006.009000", "114045.922000", "114045.925000", "114045.928000", "114045.931000", "114045.934000", "114045.937000", "114045.940000", "114045.942000", "114045.945000", "114045.948000", "114045.951000", "114045.954000", "114045.957000", "114045.959000", "114045.963000", "114045.965000", "114045.968000", "114045.971000", "114045.975000", "114045.980000", "114045.985000", "114045.988000", "114045.991000", "114045.994000", "114045.997000", "114046.000000", "114046.003000", "114046.006000", "114046.009000", "114046.012000", "114046.014000", "114125.922000", "114125.925000", "114125.928000", "114125.931000", "114125.933000", "114125.936000", "114125.939000", "114125.942000", "114125.945000", "114125.948000", "114125.951000", "114125.954000", "114125.957000", "114125.960000", "114125.963000", "114125.966000", "114125.969000", "114125.971000", "114125.974000", "114125.977000", "114125.980000", "114125.983000", "114125.986000", "114125.989000", "114125.992000", "114125.994000", "114125.997000", "114126.001000", "114126.004000", "114126.007000", "114126.010000", "114126.013000", "114205.921000", "114205.930000", "114205.933000", "114205.936000", "114205.939000", "114205.942000", "114205.945000", "114205.948000", "114205.950000", "114205.953000", "114205.956000", "114205.959000", "114205.962000", "114205.965000", "114205.968000", "114205.978000", "114205.995000", "114206.000000", "114206.002000", "114206.005000", "114206.008000", "114206.011000", "114206.014000", "114206.017000", "114206.021000", "114206.024000", "114206.027000", "114206.030000", "114206.033000", "114206.036000", "114206.039000", "114245.921000", "114245.924000", "114245.927000", "114245.930000", "114245.933000", "114245.936000", "114245.938000", "114245.941000", "114245.944000", "114245.947000", "114245.950000", "114245.953000", "114245.956000", "114245.958000", "114245.961000", "114245.964000", "114245.967000", "114245.970000", "114245.973000", "114245.975000", "114245.978000", "114245.981000", "114245.984000", "114245.987000", "114245.990000", "114245.993000", "114245.995000", "114245.998000", "114246.002000", "114246.005000", "114246.008000", "114325.922000", "114325.925000", "114325.928000", "114325.931000", "114325.934000", "114325.937000", "114325.940000", "114325.943000", "114325.946000", "114325.948000", "114325.951000", "114325.955000", "114325.958000", "114325.961000", "114325.964000", "114325.967000", "114325.970000", "114325.973000", "114325.976000", "114325.979000", "114325.983000", "114325.986000", "114325.989000", "114325.992000", "114325.995000", "114325.998000", "114326.002000", "114326.005000", "114326.008000", "114326.011000", "114326.013000", "114405.921000", "114405.924000", "114405.927000", "114405.930000", "114405.932000", "114405.935000", "114405.938000", "114405.941000", "114405.944000", "114405.947000", "114405.950000", "114405.953000", "114405.955000", "114405.958000", "114405.961000", "114405.964000", "114405.967000", "114405.970000", "114405.973000", "114405.976000", "114405.979000", "114405.981000", "114405.984000", "114405.987000", "114405.990000", "114405.993000", "114405.996000", "114406.000000", "114406.002000", "114406.005000", "114406.008000", "114406.011000", "114445.921000", "114445.924000", "114445.927000", "114445.930000", "114445.933000", "114445.936000", "114445.938000", "114445.941000", "114445.944000", "114445.947000", "114445.950000", "114445.953000", "114445.956000", "114445.958000", "114445.961000", "114445.964000", "114445.967000", "114445.970000", "114445.973000", "114445.976000", "114445.979000", "114445.981000", "114445.984000", "114445.987000", "114445.990000", "114445.993000", "114445.996000", "114446.000000", "114446.002000", "114446.005000", "114446.008000", "114525.922000", "114525.931000", "114525.934000", "114525.937000", "114525.940000", "114525.943000", "114525.946000", "114525.949000", "114525.952000", "114525.955000", "114525.958000", "114525.960000", "114525.963000", "114525.966000", "114525.969000", "114525.972000", "114525.975000", "114525.978000", "114525.981000", "114525.983000", "114525.986000", "114525.989000", "114525.992000", "114525.995000", "114525.998000", "114526.001000", "114526.004000", "114526.007000", "114526.010000", "114526.013000", "114526.015000", "114555.683000", "114555.686000", "114555.693000", "114555.697000", "114555.700000", "114555.703000", "114555.706000", "114555.710000", "114555.714000", "114555.718000", "114555.721000", "114555.726000", "114555.735000", "114555.743000", "114555.755000", "114555.758000", "114555.761000", "114555.764000", "114555.767000", "114555.772000", "114555.782000", "114555.796000", "114555.800000", "114555.803000"],
      "InstanceCreationTime": ["113825.937000", "113825.941000", "113825.944000", "113825.946000", "113825.950000", "113825.961000", "113825.965000", "113825.973000", "113825.976000", "113825.979000", "113825.981000", "113825.989000", "113825.992000", "113825.995000", "113825.997000", "113826.000000", "113826.003000", "113826.006000", "113826.009000", "113826.012000", "113826.015000", "113905.922000", "113905.925000", "113905.928000", "113905.931000", "113905.934000", "113905.937000", "113905.946000", "113905.949000", "113905.952000", "113905.954000", "113905.957000", "113905.960000", "113905.963000", "113905.966000", "113905.969000", "113905.971000", "113905.975000", "113905.977000", "113905.980000", "113905.983000", "113905.986000", "113905.989000", "113905.992000", "113905.995000", "113905.998000", "113906.002000", "113906.004000", "113906.007000", "113906.010000", "113906.013000", "113906.016000", "113925.921000", "113925.933000", "113925.936000", "113925.939000", "113925.942000", "113925.945000", "113925.947000", "113925.950000", "113925.953000", "113925.956000", "113925.959000", "113925.962000", "113925.965000", "113925.972000", "113925.975000", "113925.978000", "114005.921000", "114005.924000", "114005.927000", "114005.930000", "114005.933000", "114005.936000", "114005.939000", "114005.942000", "114005.945000", "114005.947000", "114005.950000", "114005.953000", "114005.956000", "114005.959000", "114005.962000", "114005.965000", "114005.967000", "114005.970000", "114005.973000", "114005.976000", "114005.979000", "114005.982000", "114005.985000", "114005.988000", "114005.991000", "114005.993000", "114005.996000", "114006.000000", "114006.003000", "114006.006000", "114006.009000", "114045.922000", "114045.925000", "114045.928000", "114045.931000", "114045.934000", "114045.937000", "114045.940000", "114045.942000", "114045.945000", "114045.948000", "114045.951000", "114045.954000", "114045.957000", "114045.959000", "114045.963000", "114045.965000", "114045.968000", "114045.971000", "114045.975000", "114045.980000", "114045.985000", "114045.988000", "114045.991000", "114045.994000", "114045.997000", "114046.000000", "114046.003000", "114046.006000", "114046.009000", "114046.012000", "114046.014000", "114125.922000", "114125.925000", "114125.928000", "114125.931000", "114125.933000", "114125.936000", "114125.939000", "114125.942000", "114125.945000", "114125.948000", "114125.951000", "114125.954000", "114125.957000", "114125.960000", "114125.963000", "114125.966000", "114125.969000", "114125.971000", "114125.974000", "114125.977000", "114125.980000", "114125.983000", "114125.986000", "114125.989000", "114125.992000", "114125.994000", "114125.997000", "114126.001000", "114126.004000", "114126.007000", "114126.010000", "114126.013000", "114205.921000", "114205.930000", "114205.933000", "114205.936000", "114205.939000", "114205.942000", "114205.945000", "114205.948000", "114205.950000", "114205.953000", "114205.956000", "114205.959000", "114205.962000", "114205.965000", "114205.968000", "114205.978000", "114205.995000", "114206.000000", "114206.002000", "114206.005000", "114206.008000", "114206.011000", "114206.014000", "114206.017000", "114206.021000", "114206.024000", "114206.027000", "114206.030000", "114206.033000", "114206.036000", "114206.039000", "114245.921000", "114245.924000", "114245.927000", "114245.930000", "114245.933000", "114245.936000", "114245.938000", "114245.941000", "114245.944000", "114245.947000", "114245.950000", "114245.953000", "114245.956000", "114245.958000", "114245.961000", "114245.964000", "114245.967000", "114245.970000", "114245.973000", "114245.975000", "114245.978000", "114245.981000", "114245.984000", "114245.987000", "114245.990000", "114245.993000", "114245.995000", "114245.998000", "114246.002000", "114246.005000", "114246.008000", "114325.922000", "114325.925000", "114325.928000", "114325.931000", "114325.934000", "114325.937000", "114325.940000", "114325.943000", "114325.946000", "114325.948000", "114325.951000", "114325.955000", "114325.958000", "114325.961000", "114325.964000", "114325.967000", "114325.970000", "114325.973000", "114325.976000", "114325.979000", "114325.983000", "114325.986000", "114325.989000", "114325.992000", "114325.995000", "114325.998000", "114326.002000", "114326.005000", "114326.008000", "114326.011000", "114326.013000", "114405.921000", "114405.924000", "114405.927000", "114405.930000", "114405.932000", "114405.935000", "114405.938000", "114405.941000", "114405.944000", "114405.947000", "114405.950000", "114405.953000", "114405.955000", "114405.958000", "114405.961000", "114405.964000", "114405.967000", "114405.970000", "114405.973000", "114405.976000", "114405.979000", "114405.981000", "114405.984000", "114405.987000", "114405.990000", "114405.993000", "114405.996000", "114406.000000", "114406.002000", "114406.005000", "114406.008000", "114406.011000", "114445.921000", "114445.924000", "114445.927000", "114445.930000", "114445.933000", "114445.936000", "114445.938000", "114445.941000", "114445.944000", "114445.947000", "114445.950000", "114445.953000", "114445.956000", "114445.958000", "114445.961000", "114445.964000", "114445.967000", "114445.970000", "114445.973000", "114445.976000", "114445.979000", "114445.981000", "114445.984000", "114445.987000", "114445.990000", "114445.993000", "114445.996000", "114446.000000", "114446.002000", "114446.005000", "114446.008000", "114525.922000", "114525.931000", "114525.934000", "114525.937000", "114525.940000", "114525.943000", "114525.946000", "114525.949000", "114525.952000", "114525.955000", "114525.958000", "114525.960000", "114525.963000", "114525.966000", "114525.969000", "114525.972000", "114525.975000", "114525.978000", "114525.981000", "114525.983000", "114525.986000", "114525.989000", "114525.992000", "114525.995000", "114525.998000", "114526.001000", "114526.004000", "114526.007000", "114526.010000", "114526.013000", "114526.015000", "114555.683000", "114555.686000", "114555.693000", "114555.697000", "114555.700000", "114555.703000", "114555.706000", "114555.710000", "114555.714000", "114555.718000", "114555.721000", "114555.726000", "114555.735000", "114555.743000", "114555.755000", "114555.758000", "114555.761000", "114555.764000", "114555.767000", "114555.772000", "114555.782000", "114555.796000", "114555.800000", "114555.803000"],
      "InstanceNumber": [1, 2, 3, 4, 5, 6, 7, 8, 9, 10, 11, 12, 13, 14, 15, 16, 17, 18, 19, 20, 21, 22, 23, 24, 25, 26, 27, 28, 29, 30, 31, 32, 33, 34, 35, 36, 37, 38, 39, 40, 41, 42, 43, 44, 45, 46, 47, 48, 49, 50, 51, 52, 53, 54, 55, 56, 57, 58, 59, 60, 61, 62, 63, 64, 65, 66, 67, 68, 69, 70, 71, 72, 73, 74, 75, 76, 77, 78, 79, 80, 81, 82, 83, 84, 85, 86, 87, 88, 89, 90, 91, 92, 93, 94, 95, 96, 97, 98, 99, 100, 101, 102, 103, 104, 105, 106, 107, 108, 109, 110, 111, 112, 113, 114, 115, 116, 117, 118, 119, 120, 121, 122, 123, 124, 125, 126, 127, 128, 129, 130, 131, 132, 133, 134, 135, 136, 137, 138, 139, 140, 141, 142, 143, 144, 145, 146, 147, 148, 149, 150, 151, 152, 153, 154, 155, 156, 157, 158, 159, 160, 161, 162, 163, 164, 165, 166, 167, 168, 169, 170, 171, 172, 173, 174, 175, 176, 177, 178, 179, 180, 181, 182, 183, 184, 185, 186, 187, 188, 189, 190, 191, 192, 193, 194, 195, 196, 197, 198, 199, 200, 201, 202, 203, 204, 205, 206, 207, 208, 209, 210, 211, 212, 213, 214, 215, 216, 217, 218, 219, 220, 221, 222, 223, 224, 225, 226, 227, 228, 229, 230, 231, 232, 233, 234, 235, 236, 237, 238, 239, 240, 241, 242, 243, 244, 245, 246, 247, 248, 249, 250, 251, 252, 253, 254, 255, 256, 257, 258, 259, 260, 261, 262, 263, 264, 265, 266, 267, 268, 269, 270, 271, 272, 273, 274, 275, 276, 277, 278, 279, 280, 281, 282, 283, 284, 285, 286, 287, 288, 289, 290, 291, 292, 293, 294, 295, 296, 297, 298, 299, 300, 301, 302, 303, 304, 305, 306, 307, 308, 309, 310, 311, 312, 313, 314, 315, 316, 317, 318, 319, 320, 321, 322, 323, 324, 325, 326, 327, 328, 329, 330, 331, 332, 333, 334, 335, 336, 337, 338, 339, 340, 341, 342, 343, 344, 345, 346, 347, 348, 349, 350, 351, 352, 353, 354, 355, 356, 357, 358, 359, 360, 361, 362, 363, 364, 365, 366, 367, 368, 369, 370, 371, 372, 373],
