{
  "AcquisitionMatrixPE": 108,
  "AcquisitionNumber": 1,
  "AcquisitionTime": "11:57:14.855000",
  "BandwidthPerPixelPhaseEncode": 15.964,
  "BaseResolution": 108,
  "BodyPartExamined": "BRAIN",
  "ConsistencyInfo": "N4_VE11C_LATEST_20160120",
  "ConversionSoftware": "dcm2niix",
  "ConversionSoftwareVersion": "v1.0.20180622 GCC6.3.0",
  "DerivedVendorReportedEchoSpacing": 0.000580009,
  "DeviceSerialNumber": "66054",
  "DwellTime": 2.1e-06,
  "EchoTime": 0.031,
  "EchoTrainLength": 95,
  "EffectiveEchoSpacing": 0.000580009,
  "FlipAngle": 64,
  "ImageOrientationPatientDICOM": [0.99926, 0.0378062, -0.00706787, -0.0366412, 0.879903, -0.473738],
  "ImageType": [
    "ORIGINAL",
    "PRIMARY",
    "M",
    "ND",
    "MOSAIC"
],
  "InPlanePhaseEncodingDirectionDICOM": "COL",
  "InstitutionAddress": "Chemin_des_Mines_9_Geneve_District_CH_1211",
  "InstitutionName": "Fondation_Campus_Biotech_Geneva",
  "InstitutionalDepartmentName": "Department",
  "MRAcquisitionType": "2D",
  "MagneticFieldStrength": 3,
  "Manufacturer": "Siemens",
  "ManufacturersModelName": "Prisma",
  "Modality": "MR",
  "MultibandAccelerationFactor": 4,
  "PartialFourier": 0.875,
  "PatientPosition": "HFS",
  "PercentPhaseFOV": 100,
  "PhaseEncodingDirection": "j-",
  "PhaseEncodingSteps": 95,
  "PhaseResolution": 1,
  "PixelBandwidth": 2205,
  "ProcedureStepDescription": "J.DRM_Michael",
  "ProtocolName": "Rest_bold_s4_TR1.28",
  "PulseSequenceDetails": "%SiemensSeq%_ep2d_bold",
  "ReceiveCoilActiveElements": "HC1-7;NC1,2",
  "ReceiveCoilName": "HeadNeck_64",
  "ReconMatrixPE": 108,
  "RepetitionTime": 1.28,
  "SAR": 0.0844257,
  "ScanOptions": "PFP_FS",
  "ScanningSequence": "EP",
  "SequenceName": "_epfid2d1_108",
  "SequenceVariant": "SK",
  "SeriesDescription": "Rest_bold_s4_TR1.28",
  "SeriesNumber": 12,
  "ShimSetting": [-1273, -11660, 6460, 542, 33, -154, -30, 87],
  "SliceThickness": 2,
  "SliceTiming": [0.945, 0, 0.63, 0.08, 0.71, 0.1575, 0.7875, 0.2375, 0.8675, 0.395, 1.025, 0.4725, 1.1025, 0.5525, 1.1825, 0.315, 0.945, 0, 0.63, 0.08, 0.71, 0.1575, 0.7875, 0.2375, 0.8675, 0.395, 1.025, 0.4725, 1.1025, 0.5525, 1.1825, 0.315, 0.945, 0, 0.63, 0.08, 0.71, 0.1575, 0.7875, 0.2375, 0.8675, 0.395, 1.025, 0.4725, 1.1025, 0.5525, 1.1825, 0.315, 0.945, 0, 0.63, 0.08, 0.71, 0.1575, 0.7875, 0.2375, 0.8675, 0.395, 1.025, 0.4725, 1.1025, 0.5525, 1.1825, 0.315],
  "SoftwareVersions": "syngo_MR_E11",
  "SpacingBetweenSlices": 2,
  "StationName": "AWP66054",
  "TaskName": "rest",
  "TotalReadoutTime": 0.0620609,
  "TxRefAmp": 297.377,
  "dcmmeta_affine": [
    [-1.9892678260803223, -0.07294318825006485, 0.023382361978292465, 113.90023803710938],
    [-0.07526233792304993, 1.7516595125198364, -0.9472925662994385, -53.67198944091797],
    [-0.014070301316678524, 0.9430891871452332, 1.7612751722335815, -104.31133270263672],
    [0.0, 0.0, 0.0, 1.0]
],
  "dcmmeta_reorient_transform": [
    [0.0, -1.0, 0.0, 107.0],
    [1.0, 0.0, 0.0, 0.0],
    [0.0, 0.0, 1.0, 0.0],
    [0.0, 0.0, 0.0, 1.0]
],
  "dcmmeta_shape": [108, 108, 64, 250],
  "dcmmeta_slice_dim": 2,
  "dcmmeta_version": 0.6,
  "global": {
    "const": {
      "AccessionNumber": "",
      "AcquisitionMatrix": [108, 0, 0, 108],
      "AngioFlag": "N",
      "BitsAllocated": 16,
      "BitsStored": 12,
      "BodyPartExamined": "BRAIN",
      "Columns": 864,
      "EchoNumbers": 1,
      "EchoTime": 31.0,
      "EchoTrainLength": 95,
      "FlipAngle": 64.0,
      "HighBit": 11,
      "ImageOrientationPatient": [0.99926009453501, 0.03780619856652, -0.0070678723694, -0.0366412302155, 0.87990335019998, -0.4737378120386],
      "ImagePositionPatient": [-830.46602589264, -824.33202113886, 358.40549358365],
      "ImageType": [
        "ORIGINAL",
        "PRIMARY",
        "M",
        "ND",
        "MOSAIC"
],
      "ImagedNucleus": "1H",
      "ImagingFrequency": 123.257407,
      "InPlanePhaseEncodingDirection": "COL",
      "MRAcquisitionType": "2D",
      "MagneticFieldStrength": 3.0,
      "Manufacturer": "SIEMENS",
      "ManufacturerModelName": "Prisma",
      "Modality": "MR",
      "NumberOfAverages": 1.0,
      "NumberOfPhaseEncodingSteps": 95,
      "PercentPhaseFieldOfView": 100.0,
      "PercentSampling": 100.0,
      "PerformedProcedureStepStartTime": "110443.608000",
      "PhotometricInterpretation": "MONOCHROME2",
      "PixelBandwidth": 2205.0,
      "PixelRepresentation": 0,
      "PixelSpacing": [1.990740776062, 1.990740776062],
      "PositionReferenceIndicator": "",
      "ProtocolName": "Rest_bold_s4_TR1.28",
      "RepetitionTime": 1280.0,
      "Rows": 864,
      "SAR": 0.0844256731905,
      "SamplesPerPixel": 1,
      "ScanOptions": [
        "PFP",
        "FS"
],
      "ScanningSequence": "EP",
      "SequenceName": "*epfid2d1_108",
      "SequenceVariant": "SK",
      "SeriesDescription": "Rest_bold_s4_TR1.28",
      "SeriesNumber": 12,
      "SeriesTime": "115741.979000",
      "SliceLocation": -65.107312136928,
      "SliceThickness": 2.0,
      "SmallestImagePixelValue": 0,
      "SoftwareVersions": "syngo MR E11",
      "SpacingBetweenSlices": 2.0000000300754,
      "SpecificCharacterSet": "ISO_IR 100",
      "StudyID": "1",
      "StudyTime": "110443.533000",
      "TransmitCoilName": "Body",
      "VariableFlipAngleFlag": "N",
      "WindowCenterWidthExplanation": "Algo1",
      "dBdt": 0.0},
    "slices": {}
  },
  "time": {
    "samples": {
      "AcquisitionNumber": [1, 2, 3, 4, 5, 6, 7, 8, 9, 10, 11, 12, 13, 14, 15, 16, 17, 18, 19, 20, 21, 22, 23, 24, 25, 26, 27, 28, 29, 30, 31, 32, 33, 34, 35, 36, 37, 38, 39, 40, 41, 42, 43, 44, 45, 46, 47, 48, 49, 50, 51, 52, 53, 54, 55, 56, 57, 58, 59, 60, 61, 62, 63, 64, 65, 66, 67, 68, 69, 70, 71, 72, 73, 74, 75, 76, 77, 78, 79, 80, 81, 82, 83, 84, 85, 86, 87, 88, 89, 90, 91, 92, 93, 94, 95, 96, 97, 98, 99, 100, 101, 102, 103, 104, 105, 106, 107, 108, 109, 110, 111, 112, 113, 114, 115, 116, 117, 118, 119, 120, 121, 122, 123, 124, 125, 126, 127, 128, 129, 130, 131, 132, 133, 134, 135, 136, 137, 138, 139, 140, 141, 142, 143, 144, 145, 146, 147, 148, 149, 150, 151, 152, 153, 154, 155, 156, 157, 158, 159, 160, 161, 162, 163, 164, 165, 166, 167, 168, 169, 170, 171, 172, 173, 174, 175, 176, 177, 178, 179, 180, 181, 182, 183, 184, 185, 186, 187, 188, 189, 190, 191, 192, 193, 194, 195, 196, 197, 198, 199, 200, 201, 202, 203, 204, 205, 206, 207, 208, 209, 210, 211, 212, 213, 214, 215, 216, 217, 218, 219, 220, 221, 222, 223, 224, 225, 226, 227, 228, 229, 230, 231, 232, 233, 234, 235, 236, 237, 238, 239, 240, 241, 242, 243, 244, 245, 246, 247, 248, 249, 250],
      "AcquisitionTime": ["115714.855000", "115716.135000", "115717.415000", "115718.695000", "115719.975000", "115721.255000", "115722.535000", "115723.815000", "115725.095000", "115726.375000", "115727.655000", "115728.935000", "115730.215000", "115731.495000", "115732.775000", "115734.055000", "115735.335000", "115736.615000", "115737.895000", "115739.175000", "115740.455000", "115741.735000", "115743.015000", "115744.295000", "115745.575000", "115746.855000", "115748.135000", "115749.415000", "115750.695000", "115751.975000", "115753.255000", "115754.535000", "115755.815000", "115757.095000", "115758.375000", "115759.655000", "115800.935000", "115802.215000", "115803.495000", "115804.775000", "115806.055000", "115807.335000", "115808.615000", "115809.895000", "115811.175000", "115812.455000", "115813.735000", "115815.015000", "115816.295000", "115817.575000", "115818.855000", "115820.135000", "115821.415000", "115822.695000", "115823.975000", "115825.255000", "115826.535000", "115827.815000", "115829.095000", "115830.375000", "115831.655000", "115832.935000", "115834.215000", "115835.495000", "115836.775000", "115838.055000", "115839.335000", "115840.615000", "115841.895000", "115843.175000", "115844.455000", "115845.735000", "115847.015000", "115848.295000", "115849.575000", "115850.855000", "115852.135000", "115853.415000", "115854.695000", "115855.975000", "115857.255000", "115858.535000", "115859.815000", "115901.095000", "115902.375000", "115903.655000", "115904.935000", "115906.215000", "115907.495000", "115908.775000", "115910.055000", "115911.335000", "115912.615000", "115913.895000", "115915.175000", "115916.455000", "115917.735000", "115919.015000", "115920.295000", "115921.575000", "115922.855000", "115924.135000", "115925.415000", "115926.695000", "115927.975000", "115929.255000", "115930.535000", "115931.815000", "115933.095000", "115934.375000", "115935.655000", "115936.935000", "115938.215000", "115939.495000", "115940.775000", "115942.055000", "115943.335000", "115944.615000", "115945.895000", "115947.175000", "115948.455000", "115949.735000", "115951.015000", "115952.295000", "115953.575000", "115954.855000", "115956.135000", "115957.415000", "115958.695000", "115959.975000", "120001.255000", "120002.535000", "120003.815000", "120005.095000", "120006.375000", "120007.655000", "120008.935000", "120010.215000", "120011.495000", "120012.775000", "120014.055000", "120015.335000", "120016.615000", "120017.895000", "120019.175000", "120020.455000", "120021.735000", "120023.015000", "120024.295000", "120025.575000", "120026.855000", "120028.135000", "120029.415000", "120030.695000", "120031.975000", "120033.255000", "120034.535000", "120035.815000", "120037.095000", "120038.375000", "120039.655000", "120040.935000", "120042.215000", "120043.495000", "120044.775000", "120046.055000", "120047.335000", "120048.615000", "120049.895000", "120051.175000", "120052.455000", "120053.735000", "120055.015000", "120056.295000", "120057.575000", "120058.855000", "120100.135000", "120101.415000", "120102.695000", "120103.975000", "120105.255000", "120106.535000", "120107.815000", "120109.095000", "120110.375000", "120111.655000", "120112.935000", "120114.215000", "120115.495000", "120116.775000", "120118.055000", "120119.335000", "120120.615000", "120121.895000", "120123.175000", "120124.455000", "120125.735000", "120127.015000", "120128.295000", "120129.575000", "120130.855000", "120132.135000", "120133.415000", "120134.695000", "120135.975000", "120137.255000", "120138.535000", "120139.815000", "120141.095000", "120142.375000", "120143.655000", "120144.935000", "120146.215000", "120147.495000", "120148.775000", "120150.055000", "120151.335000", "120152.615000", "120153.895000", "120155.175000", "120156.455000", "120157.735000", "120159.015000", "120200.295000", "120201.575000", "120202.855000", "120204.135000", "120205.415000", "120206.695000", "120207.975000", "120209.255000", "120210.535000", "120211.815000", "120213.095000", "120214.375000", "120215.655000", "120216.935000", "120218.215000", "120219.495000", "120220.775000", "120222.055000", "120223.335000", "120224.615000", "120225.895000", "120227.175000", "120228.455000", "120229.735000", "120231.015000", "120232.295000", "120233.575000"],
      "ContentTime": ["115741.983000", "115741.996000", "115742.000000", "115742.002000", "115742.005000", "115742.008000", "115742.011000", "115742.014000", "115742.017000", "115742.020000", "115742.023000", "115742.025000", "115742.032000", "115742.035000", "115742.044000", "115742.051000", "115742.054000", "115742.057000", "115742.060000", "115742.063000", "115742.066000", "115821.978000", "115821.981000", "115821.984000", "115821.987000", "115822.011000", "115822.014000", "115822.017000", "115822.019000", "115822.022000", "115822.025000", "115822.028000", "115822.031000", "115822.034000", "115822.042000", "115822.045000", "115822.047000", "115822.050000", "115822.053000", "115822.056000", "115822.059000", "115822.062000", "115822.065000", "115822.068000", "115822.071000", "115822.073000", "115822.076000", "115822.079000", "115822.082000", "115822.085000", "115822.088000", "115822.092000", "115901.978000", "115901.981000", "115901.984000", "115901.987000", "115901.990000", "115901.994000", "115901.996000", "115902.000000", "115902.003000", "115902.008000", "115902.013000", "115902.017000", "115902.020000", "115902.023000", "115902.026000", "115902.029000", "115902.032000", "115902.035000", "115902.038000", "115902.041000", "115902.044000", "115902.046000", "115902.049000", "115902.052000", "115902.055000", "115902.058000", "115902.061000", "115902.064000", "115902.067000", "115902.070000", "115902.073000", "115941.978000", "115941.981000", "115941.984000", "115941.987000", "115941.990000", "115941.993000", "115941.996000", "115941.999000", "115942.002000", "115942.005000", "115942.007000", "115942.014000", "115942.017000", "115942.020000", "115942.023000", "115942.026000", "115942.029000", "115942.032000", "115942.035000", "115942.038000", "115942.040000", "115942.043000", "115942.046000", "115942.049000", "115942.052000", "115942.055000", "115942.058000", "115942.061000", "115942.063000", "115942.066000", "115942.069000", "115942.072000", "120021.978000", "120021.981000", "120021.984000", "120021.987000", "120021.990000", "120021.993000", "120021.996000", "120022.000000", "120022.003000", "120022.005000", "120022.008000", "120022.011000", "120022.014000", "120022.017000", "120022.020000", "120022.023000", "120022.026000", "120022.029000", "120022.032000", "120022.035000", "120022.038000", "120022.041000", "120022.044000", "120022.046000", "120022.050000", "120022.053000", "120022.055000", "120022.058000", "120022.061000", "120022.064000", "120022.067000", "120101.978000", "120101.981000", "120101.984000", "120101.987000", "120101.990000", "120101.993000", "120101.996000", "120102.000000", "120102.003000", "120102.006000", "120102.009000", "120102.012000", "120102.014000", "120102.017000", "120102.020000", "120102.023000", "120102.026000", "120102.029000", "120102.032000", "120102.035000", "120102.038000", "120102.041000", "120102.044000", "120102.047000", "120102.050000", "120102.052000", "120102.055000", "120102.058000", "120102.061000", "120102.064000", "120102.067000", "120141.977000", "120141.985000", "120141.991000", "120141.996000", "120142.000000", "120142.009000", "120142.025000", "120142.034000", "120142.037000", "120142.040000", "120142.043000", "120142.046000", "120142.049000", "120142.054000", "120142.057000", "120142.065000", "120142.068000", "120142.088000", "120142.091000", "120142.095000", "120142.112000", "120142.115000", "120142.118000", "120142.121000", "120142.129000", "120142.132000", "120142.135000", "120142.138000", "120142.141000", "120142.144000", "120142.147000", "120221.978000", "120221.981000", "120221.984000", "120221.987000", "120221.990000", "120221.993000", "120221.995000", "120221.998000", "120222.002000", "120222.016000", "120222.019000", "120222.022000", "120222.025000", "120222.028000", "120222.031000", "120222.034000", "120222.037000", "120222.040000", "120222.043000", "120222.046000", "120222.048000", "120222.051000", "120222.054000", "120222.057000", "120222.060000", "120222.063000", "120222.066000", "120222.069000", "120222.072000", "120222.075000", "120222.077000", "120222.081000", "120234.492000", "120234.496000", "120234.499000", "120234.502000", "120234.505000", "120234.508000", "120234.511000", "120234.514000", "120234.517000", "120234.520000"],
      "InstanceCreationTime": ["115741.983000", "115741.996000", "115742.000000", "115742.002000", "115742.005000", "115742.008000", "115742.011000", "115742.014000", "115742.017000", "115742.020000", "115742.023000", "115742.025000", "115742.032000", "115742.035000", "115742.044000", "115742.051000", "115742.054000", "115742.057000", "115742.060000", "115742.063000", "115742.066000", "115821.978000", "115821.981000", "115821.984000", "115821.987000", "115822.011000", "115822.014000", "115822.017000", "115822.019000", "115822.022000", "115822.025000", "115822.028000", "115822.031000", "115822.034000", "115822.042000", "115822.045000", "115822.047000", "115822.050000", "115822.053000", "115822.056000", "115822.059000", "115822.062000", "115822.065000", "115822.068000", "115822.071000", "115822.073000", "115822.076000", "115822.079000", "115822.082000", "115822.085000", "115822.088000", "115822.092000", "115901.978000", "115901.981000", "115901.984000", "115901.987000", "115901.990000", "115901.994000", "115901.996000", "115902.000000", "115902.003000", "115902.008000", "115902.013000", "115902.017000", "115902.020000", "115902.023000", "115902.026000", "115902.029000", "115902.032000", "115902.035000", "115902.038000", "115902.041000", "115902.044000", "115902.046000", "115902.049000", "115902.052000", "115902.055000", "115902.058000", "115902.061000", "115902.064000", "115902.067000", "115902.070000", "115902.073000", "115941.978000", "115941.981000", "115941.984000", "115941.987000", "115941.990000", "115941.993000", "115941.996000", "115941.999000", "115942.002000", "115942.005000", "115942.007000", "115942.014000", "115942.017000", "115942.020000", "115942.023000", "115942.026000", "115942.029000", "115942.032000", "115942.035000", "115942.038000", "115942.040000", "115942.043000", "115942.046000", "115942.049000", "115942.052000", "115942.055000", "115942.058000", "115942.061000", "115942.063000", "115942.066000", "115942.069000", "115942.072000", "120021.978000", "120021.981000", "120021.984000", "120021.987000", "120021.990000", "120021.993000", "120021.996000", "120022.000000", "120022.003000", "120022.005000", "120022.008000", "120022.011000", "120022.014000", "120022.017000", "120022.020000", "120022.023000", "120022.026000", "120022.029000", "120022.032000", "120022.035000", "120022.038000", "120022.041000", "120022.044000", "120022.046000", "120022.050000", "120022.053000", "120022.055000", "120022.058000", "120022.061000", "120022.064000", "120022.067000", "120101.978000", "120101.981000", "120101.984000", "120101.987000", "120101.990000", "120101.993000", "120101.996000", "120102.000000", "120102.003000", "120102.006000", "120102.009000", "120102.012000", "120102.014000", "120102.017000", "120102.020000", "120102.023000", "120102.026000", "120102.029000", "120102.032000", "120102.035000", "120102.038000", "120102.041000", "120102.044000", "120102.047000", "120102.050000", "120102.052000", "120102.055000", "120102.058000", "120102.061000", "120102.064000", "120102.067000", "120141.977000", "120141.985000", "120141.991000", "120141.996000", "120142.000000", "120142.009000", "120142.025000", "120142.034000", "120142.037000", "120142.040000", "120142.043000", "120142.046000", "120142.049000", "120142.054000", "120142.057000", "120142.065000", "120142.068000", "120142.088000", "120142.091000", "120142.095000", "120142.112000", "120142.115000", "120142.118000", "120142.121000", "120142.129000", "120142.132000", "120142.135000", "120142.138000", "120142.141000", "120142.144000", "120142.147000", "120221.978000", "120221.981000", "120221.984000", "120221.987000", "120221.990000", "120221.993000", "120221.995000", "120221.998000", "120222.002000", "120222.016000", "120222.019000", "120222.022000", "120222.025000", "120222.028000", "120222.031000", "120222.034000", "120222.037000", "120222.040000", "120222.043000", "120222.046000", "120222.048000", "120222.051000", "120222.054000", "120222.057000", "120222.060000", "120222.063000", "120222.066000", "120222.069000", "120222.072000", "120222.075000", "120222.077000", "120222.081000", "120234.492000", "120234.496000", "120234.499000", "120234.502000", "120234.505000", "120234.508000", "120234.511000", "120234.514000", "120234.517000", "120234.520000"],
      "InstanceNumber": [1, 2, 3, 4, 5, 6, 7, 8, 9, 10, 11, 12, 13, 14, 15, 16, 17, 18, 19, 20, 21, 22, 23, 24, 25, 26, 27, 28, 29, 30, 31, 32, 33, 34, 35, 36, 37, 38, 39, 40, 41, 42, 43, 44, 45, 46, 47, 48, 49, 50, 51, 52, 53, 54, 55, 56, 57, 58, 59, 60, 61, 62, 63, 64, 65, 66, 67, 68, 69, 70, 71, 72, 73, 74, 75, 76, 77, 78, 79, 80, 81, 82, 83, 84, 85, 86, 87, 88, 89, 90, 91, 92, 93, 94, 95, 96, 97, 98, 99, 100, 101, 102, 103, 104, 105, 106, 107, 108, 109, 110, 111, 112, 113, 114, 115, 116, 117, 118, 119, 120, 121, 122, 123, 124, 125, 126, 127, 128, 129, 130, 131, 132, 133, 134, 135, 136, 137, 138, 139, 140, 141, 142, 143, 144, 145, 146, 147, 148, 149, 150, 151, 152, 153, 154, 155, 156, 157, 158, 159, 160, 161, 162, 163, 164, 165, 166, 167, 168, 169, 170, 171, 172, 173, 174, 175, 176, 177, 178, 179, 180, 181, 182, 183, 184, 185, 186, 187, 188, 189, 190, 191, 192, 193, 194, 195, 196, 197, 198, 199, 200, 201, 202, 203, 204, 205, 206, 207, 208, 209, 210, 211, 212, 213, 214, 215, 216, 217, 218, 219, 220, 221, 222, 223, 224, 225, 226, 227, 228, 229, 230, 231, 232, 233, 234, 235, 236, 237, 238, 239, 240, 241, 242, 243, 244, 245, 246, 247, 248, 249, 250],
      "LargestImagePixelValue": [2309, 2220, 2185, 2157, 2179, 2227, 2162, 2173, 2197, 2161, 2168, 2209, 2115, 2163, 2153, 2115, 2195, 2156, 2145, 2162, 2117, 2191, 2155, 2130, 2199, 2112, 2114, 2125, 2161, 2152, 2210, 2122, 2132, 2198, 2139, 2122, 2189, 2161, 2129, 2155, 2160, 2133, 2149, 2155, 2166, 2159, 2148, 2156, 2177, 2173, 2188, 2162, 2155, 2164, 2170, 2189, 2154, 2164, 2159, 2196, 2188, 2143, 2186, 2159, 2180, 2169, 2176, 2181, 2190, 2156, 2197, 2216, 2191, 2185, 2162, 2193, 2236, 2196, 2205, 2218, 2203, 2202, 2212, 2186, 2202, 2190, 2198, 2210, 2214, 2207, 2211, 2195, 2187, 2206, 2185, 2158, 2160, 2189, 2186, 2171, 2198, 2175, 2162, 2232, 2191, 2172, 2185, 2178, 2184, 2179, 2196, 2162, 2176, 2176, 2128, 2178, 2167, 2174, 2180, 2193, 2201, 2181, 2177, 2188, 2181, 2223, 2205, 2236, 2200, 2201, 2273, 2196, 2191, 2183, 2185, 2171, 2200, 2193, 2174, 2142, 2173, 2173, 2154, 2218, 2190, 2175, 2192, 2193, 2160, 2225, 2406, 2203, 2211, 2184, 2220, 2224, 2213, 2215, 2200, 2170, 2182, 2192, 2177, 2163, 2174, 2236, 2175, 2187, 2169, 2182, 2169, 2454, 2192, 2166, 2201, 2202, 2162, 2168, 2173, 2149, 2292, 2205, 2160, 2191, 2184, 2173, 2208, 2187, 2193, 2181, 2178, 2157, 2166, 2175, 2192, 2203, 2182, 2179, 2184, 2162, 2186, 2189, 2172, 2192, 2175, 2154, 2215, 2204, 2173, 2246, 2204, 2171, 2226, 2177, 2179, 2207, 2174, 2221, 2192, 2166, 2228, 2166, 2185, 2188, 2199, 2171, 2183, 2193, 2194, 2212, 2200, 2184, 2180, 2180, 2174, 2235, 2202, 2174, 2194, 2193, 2170, 2185, 2200, 2167, 2194, 2182, 2130, 2309, 2248, 2207],
      "WindowCenter": [622.0, 619.0, 617.0, 617.0, 617.0, 618.0, 617.0, 618.0, 619.0, 618.0, 619.0, 619.0, 617.0, 617.0, 617.0, 617.0, 618.0, 617.0, 618.0, 617.0, 617.0, 617.0, 616.0, 616.0, 617.0, 616.0, 617.0, 617.0, 618.0, 618.0, 619.0, 617.0, 619.0, 619.0, 617.0, 616.0, 617.0, 616.0, 615.0, 615.0, 615.0, 615.0, 616.0, 616.0, 616.0, 617.0, 617.0, 617.0, 617.0, 617.0, 617.0, 617.0, 617.0, 617.0, 617.0, 616.0, 616.0, 616.0, 615.0, 615.0, 615.0, 615.0, 616.0, 617.0, 617.0, 617.0, 617.0, 617.0, 617.0, 617.0, 618.0, 618.0, 617.0, 618.0, 617.0, 618.0, 618.0, 618.0, 618.0, 617.0, 617.0, 617.0, 617.0, 616.0, 616.0, 616.0, 617.0, 617.0, 617.0, 617.0, 618.0, 618.0, 619.0, 620.0, 620.0, 620.0, 621.0, 621.0, 620.0, 620.0, 620.0, 620.0, 621.0, 622.0, 620.0, 619.0, 618.0, 618.0, 617.0, 617.0, 617.0, 616.0, 616.0, 616.0, 615.0, 616.0, 616.0, 616.0, 617.0, 618.0, 619.0, 619.0, 619.0, 619.0, 619.0, 619.0, 618.0, 619.0, 618.0, 618.0, 620.0, 618.0, 618.0, 617.0, 616.0, 617.0, 617.0, 617.0, 617.0, 617.0, 619.0, 619.0, 619.0, 620.0, 620.0, 619.0, 619.0, 618.0, 617.0, 618.0, 621.0, 619.0, 620.0, 620.0, 621.0, 620.0, 619.0, 617.0, 616.0, 616.0, 616.0, 617.0, 617.0, 617.0, 618.0, 619.0, 618.0, 618.0, 617.0, 617.0, 617.0, 620.0, 619.0, 618.0, 618.0, 618.0, 618.0, 618.0, 619.0, 620.0, 622.0, 619.0, 617.0, 616.0, 615.0, 614.0, 614.0, 615.0, 615.0, 616.0, 616.0, 616.0, 618.0, 618.0, 618.0, 618.0, 617.0, 617.0, 616.0, 616.0, 617.0, 618.0, 619.0, 619.0, 620.0, 620.0, 619.0, 618.0, 617.0, 617.0, 617.0, 617.0, 618.0, 619.0, 620.0, 619.0, 617.0, 616.0, 615.0, 614.0, 614.0, 613.0, 613.0, 613.0, 613.0, 614.0, 615.0, 616.0, 616.0, 617.0, 617.0, 618.0, 618.0, 619.0, 620.0, 620.0, 619.0, 618.0, 617.0, 617.0, 617.0, 617.0, 618.0, 618.0, 619.0, 619.0, 619.0, 621.0, 620.0, 618.0],
      "WindowWidth": [1305.0, 1298.0, 1294.0, 1292.0, 1293.0, 1294.0, 1293.0, 1295.0, 1296.0, 1296.0, 1296.0, 1297.0, 1293.0, 1292.0, 1292.0, 1293.0, 1294.0, 1294.0, 1295.0, 1294.0, 1293.0, 1293.0, 1291.0, 1292.0, 1292.0, 1291.0, 1293.0, 1293.0, 1295.0, 1296.0, 1296.0, 1294.0, 1297.0, 1297.0, 1294.0, 1292.0, 1292.0, 1291.0, 1290.0, 1290.0, 1290.0, 1290.0, 1291.0, 1292.0, 1293.0, 1293.0, 1293.0, 1294.0, 1293.0, 1294.0, 1294.0, 1294.0, 1294.0, 1293.0, 1293.0, 1292.0, 1291.0, 1291.0, 1290.0, 1290.0, 1289.0, 1290.0, 1292.0, 1293.0, 1293.0, 1294.0, 1293.0, 1293.0, 1294.0, 1293.0, 1295.0, 1295.0, 1294.0, 1295.0, 1294.0, 1295.0, 1296.0, 1294.0, 1295.0, 1294.0, 1293.0, 1293.0, 1293.0, 1292.0, 1292.0, 1292.0, 1293.0, 1293.0, 1294.0, 1294.0, 1295.0, 1296.0, 1298.0, 1300.0, 1300.0, 1301.0, 1302.0, 1302.0, 1300.0, 1300.0, 1300.0, 1300.0, 1302.0, 1303.0, 1300.0, 1298.0, 1295.0, 1295.0, 1293.0, 1293.0, 1293.0, 1292.0, 1292.0, 1292.0, 1289.0, 1291.0, 1291.0, 1292.0, 1294.0, 1296.0, 1298.0, 1298.0, 1298.0, 1298.0, 1298.0, 1298.0, 1297.0, 1298.0, 1296.0, 1296.0, 1299.0, 1296.0, 1295.0, 1293.0, 1292.0, 1293.0, 1293.0, 1293.0, 1295.0, 1295.0, 1298.0, 1299.0, 1299.0, 1299.0, 1299.0, 1298.0, 1298.0, 1296.0, 1295.0, 1296.0, 1301.0, 1298.0, 1299.0, 1300.0, 1302.0, 1300.0, 1298.0, 1294.0, 1292.0, 1292.0, 1292.0, 1294.0, 1295.0, 1295.0, 1297.0, 1299.0, 1297.0, 1297.0, 1295.0, 1294.0, 1294.0, 1300.0, 1298.0, 1297.0, 1296.0, 1295.0, 1296.0, 1295.0, 1299.0, 1300.0, 1303.0, 1298.0, 1294.0, 1292.0, 1289.0, 1288.0, 1288.0, 1289.0, 1290.0, 1291.0, 1292.0, 1293.0, 1295.0, 1295.0, 1295.0, 1295.0, 1294.0, 1294.0, 1292.0, 1293.0, 1294.0, 1296.0, 1298.0, 1299.0, 1301.0, 1300.0, 1299.0, 1296.0, 1294.0, 1294.0, 1294.0, 1294.0, 1296.0, 1299.0, 1300.0, 1299.0, 1294.0, 1292.0, 1289.0, 1287.0, 1288.0, 1285.0, 1285.0, 1285.0, 1286.0, 1288.0, 1290.0, 1291.0, 1292.0, 1294.0, 1295.0, 1296.0, 1296.0, 1299.0, 1300.0, 1300.0, 1298.0, 1296.0, 1294.0, 1294.0, 1293.0, 1294.0, 1295.0, 1296.0, 1298.0, 1299.0, 1299.0, 1302.0, 1300.0, 1297.0]
    },
    "slices": {}
  }
}