{
  "AcquisitionMatrixPE": 108,
  "AcquisitionNumber": 1,
  "AcquisitionTime": "12:03:44.040000",
  "BandwidthPerPixelPhaseEncode": 15.964,
  "BaseResolution": 108,
  "BodyPartExamined": "BRAIN",
  "ConsistencyInfo": "N4_VE11C_LATEST_20160120",
  "ConversionSoftware": "dcm2niix",
  "ConversionSoftwareVersion": "v1.0.20180622 GCC6.3.0",
  "DerivedVendorReportedEchoSpacing": 0.000580009,
  "DeviceSerialNumber": "66054",
  "DwellTime": 2.1e-06,
  "EchoTime": 0.031,
  "EchoTrainLength": 95,
  "EffectiveEchoSpacing": 0.000580009,
  "FlipAngle": 64,
  "ImageOrientationPatientDICOM": [0.99926, 0.0378062, -0.00706787, -0.0366412, 0.879903, -0.473738],
  "ImageType": [
    "ORIGINAL",
    "PRIMARY",
    "M",
    "ND",
    "MOSAIC"
],
  "InPlanePhaseEncodingDirectionDICOM": "COL",
  "InstitutionAddress": "Chemin_des_Mines_9_Geneve_District_CH_1211",
  "InstitutionName": "Fondation_Campus_Biotech_Geneva",
  "InstitutionalDepartmentName": "Department",
  "MRAcquisitionType": "2D",
  "MagneticFieldStrength": 3,
  "Manufacturer": "Siemens",
  "ManufacturersModelName": "Prisma",
  "Modality": "MR",
  "MultibandAccelerationFactor": 4,
  "PartialFourier": 0.875,
  "PatientPosition": "HFS",
  "PercentPhaseFOV": 100,
  "PhaseEncodingDirection": "j-",
  "PhaseEncodingSteps": 95,
  "PhaseResolution": 1,
  "PixelBandwidth": 2205,
  "ProcedureStepDescription": "J.DRM_Michael",
  "ProtocolName": "Run5_bold_s4_TR1.28",
  "PulseSequenceDetails": "%SiemensSeq%_ep2d_bold",
  "ReceiveCoilActiveElements": "HC1-7;NC1,2",
  "ReceiveCoilName": "HeadNeck_64",
  "ReconMatrixPE": 108,
  "RepetitionTime": 1.28,
  "SAR": 0.0846619,
  "ScanOptions": "PFP_FS",
  "ScanningSequence": "EP",
  "SequenceName": "_epfid2d1_108",
  "SequenceVariant": "SK",
  "SeriesDescription": "Run5_bold_s4_TR1.28",
  "SeriesNumber": 13,
  "ShimSetting": [-1273, -11660, 6460, 542, 33, -154, -30, 87],
  "SliceThickness": 2,
  "SliceTiming": [0.945, 0, 0.63, 0.08, 0.71, 0.1575, 0.7875, 0.2375, 0.8675, 0.395, 1.025, 0.4725, 1.1025, 0.5525, 1.1825, 0.315, 0.945, 0, 0.63, 0.08, 0.71, 0.1575, 0.7875, 0.2375, 0.8675, 0.395, 1.025, 0.4725, 1.1025, 0.5525, 1.1825, 0.315, 0.945, 0, 0.63, 0.08, 0.71, 0.1575, 0.7875, 0.2375, 0.8675, 0.395, 1.025, 0.4725, 1.1025, 0.5525, 1.1825, 0.315, 0.945, 0, 0.63, 0.08, 0.71, 0.1575, 0.7875, 0.2375, 0.8675, 0.395, 1.025, 0.4725, 1.1025, 0.5525, 1.1825, 0.315],
  "SoftwareVersions": "syngo_MR_E11",
  "SpacingBetweenSlices": 2,
  "StationName": "AWP66054",
  "TaskName": "main",
  "TotalReadoutTime": 0.0620609,
  "TxRefAmp": 297.377,
  "dcmmeta_affine": [
    [-1.9892678260803223, -0.07294318825006485, 0.023382361978292465, 113.90023803710938],
    [-0.07526233792304993, 1.7516595125198364, -0.9472925662994385, -53.67198944091797],
    [-0.014070301316678524, 0.9430891871452332, 1.7612751722335815, -104.31133270263672],
    [0.0, 0.0, 0.0, 1.0]
],
  "dcmmeta_reorient_transform": [
    [0.0, -1.0, 0.0, 107.0],
    [1.0, 0.0, 0.0, 0.0],
    [0.0, 0.0, 1.0, 0.0],
    [0.0, 0.0, 0.0, 1.0]
],
  "dcmmeta_shape": [108, 108, 64, 373],
  "dcmmeta_slice_dim": 2,
  "dcmmeta_version": 0.6,
  "global": {
    "const": {
      "AccessionNumber": "",
      "AcquisitionMatrix": [108, 0, 0, 108],
      "AngioFlag": "N",
      "BitsAllocated": 16,
      "BitsStored": 12,
      "BodyPartExamined": "BRAIN",
      "Columns": 864,
      "EchoNumbers": 1,
      "EchoTime": 31.0,
      "EchoTrainLength": 95,
      "FlipAngle": 64.0,
      "HighBit": 11,
      "ImageOrientationPatient": [0.99926009453501, 0.03780619856652, -0.0070678723694, -0.0366412302155, 0.87990335019998, -0.4737378120386],
      "ImagePositionPatient": [-830.46602589264, -824.33202113886, 358.40549358365],
      "ImageType": [
        "ORIGINAL",
        "PRIMARY",
        "M",
        "ND",
        "MOSAIC"
],
      "ImagedNucleus": "1H",
      "ImagingFrequency": 123.257409,
      "InPlanePhaseEncodingDirection": "COL",
      "MRAcquisitionType": "2D",
      "MagneticFieldStrength": 3.0,
      "Manufacturer": "SIEMENS",
      "ManufacturerModelName": "Prisma",
      "Modality": "MR",
      "NumberOfAverages": 1.0,
      "NumberOfPhaseEncodingSteps": 95,
      "PercentPhaseFieldOfView": 100.0,
      "PercentSampling": 100.0,
      "PerformedProcedureStepStartTime": "110443.608000",
      "PhotometricInterpretation": "MONOCHROME2",
      "PixelBandwidth": 2205.0,
      "PixelRepresentation": 0,
      "PixelSpacing": [1.990740776062, 1.990740776062],
      "PositionReferenceIndicator": "",
      "ProtocolName": "Run5_bold_s4_TR1.28",
      "RepetitionTime": 1280.0,
      "Rows": 864,
      "SAR": 0.08466188163534,
      "SamplesPerPixel": 1,
      "ScanOptions": [
        "PFP",
        "FS"
],
      "ScanningSequence": "EP",
      "SequenceName": "*epfid2d1_108",
      "SequenceVariant": "SK",
      "SeriesDescription": "Run5_bold_s4_TR1.28",
      "SeriesNumber": 13,
      "SeriesTime": "120425.923000",
      "SliceLocation": -65.107312136928,
      "SliceThickness": 2.0,
      "SmallestImagePixelValue": 0,
      "SoftwareVersions": "syngo MR E11",
      "SpacingBetweenSlices": 2.0000000300754,
      "SpecificCharacterSet": "ISO_IR 100",
      "StudyID": "1",
      "StudyTime": "110443.533000",
      "TransmitCoilName": "Body",
      "VariableFlipAngleFlag": "N",
      "WindowCenterWidthExplanation": "Algo1",
      "dBdt": 0.0},
    "slices": {}
  },
  "time": {
    "samples": {
      "AcquisitionNumber": [1, 2, 3, 4, 5, 6, 7, 8, 9, 10, 11, 12, 13, 14, 15, 16, 17, 18, 19, 20, 21, 22, 23, 24, 25, 26, 27, 28, 29, 30, 31, 32, 33, 34, 35, 36, 37, 38, 39, 40, 41, 42, 43, 44, 45, 46, 47, 48, 49, 50, 51, 52, 53, 54, 55, 56, 57, 58, 59, 60, 61, 62, 63, 64, 65, 66, 67, 68, 69, 70, 71, 72, 73, 74, 75, 76, 77, 78, 79, 80, 81, 82, 83, 84, 85, 86, 87, 88, 89, 90, 91, 92, 93, 94, 95, 96, 97, 98, 99, 100, 101, 102, 103, 104, 105, 106, 107, 108, 109, 110, 111, 112, 113, 114, 115, 116, 117, 118, 119, 120, 121, 122, 123, 124, 125, 126, 127, 128, 129, 130, 131, 132, 133, 134, 135, 136, 137, 138, 139, 140, 141, 142, 143, 144, 145, 146, 147, 148, 149, 150, 151, 152, 153, 154, 155, 156, 157, 158, 159, 160, 161, 162, 163, 164, 165, 166, 167, 168, 169, 170, 171, 172, 173, 174, 175, 176, 177, 178, 179, 180, 181, 182, 183, 184, 185, 186, 187, 188, 189, 190, 191, 192, 193, 194, 195, 196, 197, 198, 199, 200, 201, 202, 203, 204, 205, 206, 207, 208, 209, 210, 211, 212, 213, 214, 215, 216, 217, 218, 219, 220, 221, 222, 223, 224, 225, 226, 227, 228, 229, 230, 231, 232, 233, 234, 235, 236, 237, 238, 239, 240, 241, 242, 243, 244, 245, 246, 247, 248, 249, 250, 251, 252, 253, 254, 255, 256, 257, 258, 259, 260, 261, 262, 263, 264, 265, 266, 267, 268, 269, 270, 271, 272, 273, 274, 275, 276, 277, 278, 279, 280, 281, 282, 283, 284, 285, 286, 287, 288, 289, 290, 291, 292, 293, 294, 295, 296, 297, 298, 299, 300, 301, 302, 303, 304, 305, 306, 307, 308, 309, 310, 311, 312, 313, 314, 315, 316, 317, 318, 319, 320, 321, 322, 323, 324, 325, 326, 327, 328, 329, 330, 331, 332, 333, 334, 335, 336, 337, 338, 339, 340, 341, 342, 343, 344, 345, 346, 347, 348, 349, 350, 351, 352, 353, 354, 355, 356, 357, 358, 359, 360, 361, 362, 363, 364, 365, 366, 367, 368, 369, 370, 371, 372, 373],
      "AcquisitionTime": ["120344.040000", "120345.320000", "120346.600000", "120347.880000", "120349.160000", "120350.440000", "120351.720000", "120353.000000", "120354.280000", "120355.560000", "120356.840000", "120358.120000", "120359.400000", "120400.680000", "120401.960000", "120403.240000", "120404.520000", "120405.800000", "120407.080000", "120408.360000", "120409.640000", "120410.920000", "120412.200000", "120413.480000", "120414.760000", "120416.040000", "120417.320000", "120418.600000", "120419.880000", "120421.160000", "120422.440000", "120423.720000", "120425.000000", "120426.280000", "120427.560000", "120428.840000", "120430.120000", "120431.400000", "120432.680000", "120433.960000", "120435.240000", "120436.520000", "120437.800000", "120439.080000", "120440.360000", "120441.640000", "120442.920000", "120444.200000", "120445.480000", "120446.760000", "120448.040000", "120449.320000", "120450.600000", "120451.880000", "120453.160000", "120454.440000", "120455.720000", "120457.000000", "120458.280000", "120459.560000", "120500.840000", "120502.120000", "120503.400000", "120504.680000", "120505.960000", "120507.240000", "120508.520000", "120509.800000", "120511.080000", "120512.360000", "120513.640000", "120514.920000", "120516.200000", "120517.480000", "120518.760000", "120520.040000", "120521.320000", "120522.600000", "120523.880000", "120525.160000", "120526.440000", "120527.720000", "120529.000000", "120530.280000", "120531.560000", "120532.840000", "120534.120000", "120535.400000", "120536.680000", "120537.960000", "120539.240000", "120540.520000", "120541.800000", "120543.080000", "120544.360000", "120545.640000", "120546.920000", "120548.200000", "120549.480000", "120550.760000", "120552.040000", "120553.320000", "120554.600000", "120555.880000", "120557.160000", "120558.440000", "120559.720000", "120601.000000", "120602.280000", "120603.560000", "120604.840000", "120606.120000", "120607.400000", "120608.680000", "120609.960000", "120611.240000", "120612.520000", "120613.800000", "120615.080000", "120616.360000", "120617.640000", "120618.920000", "120620.200000", "120621.480000", "120622.760000", "120624.040000", "120625.320000", "120626.600000", "120627.880000", "120629.160000", "120630.440000", "120631.720000", "120633.000000", "120634.280000", "120635.560000", "120636.840000", "120638.120000", "120639.400000", "120640.680000", "120641.960000", "120643.240000", "120644.520000", "120645.800000", "120647.080000", "120648.360000", "120649.640000", "120650.920000", "120652.200000", "120653.480000", "120654.760000", "120656.040000", "120657.320000", "120658.600000", "120659.880000", "120701.160000", "120702.440000", "120703.720000", "120705.000000", "120706.280000", "120707.560000", "120708.840000", "120710.120000", "120711.400000", "120712.680000", "120713.960000", "120715.240000", "120716.520000", "120717.800000", "120719.080000", "120720.360000", "120721.640000", "120722.920000", "120724.200000", "120725.480000", "120726.760000", "120728.040000", "120729.320000", "120730.600000", "120731.880000", "120733.160000", "120734.440000", "120735.720000", "120737.000000", "120738.280000", "120739.560000", "120740.840000", "120742.120000", "120743.400000", "120744.680000", "120745.960000", "120747.240000", "120748.520000", "120749.800000", "120751.080000", "120752.360000", "120753.640000", "120754.920000", "120756.200000", "120757.480000", "120758.760000", "120800.040000", "120801.320000", "120802.600000", "120803.880000", "120805.160000", "120806.440000", "120807.720000", "120809.000000", "120810.280000", "120811.560000", "120812.840000", "120814.120000", "120815.400000", "120816.680000", "120817.960000", "120819.240000", "120820.520000", "120821.800000", "120823.080000", "120824.360000", "120825.640000", "120826.920000", "120828.200000", "120829.480000", "120830.760000", "120832.040000", "120833.320000", "120834.600000", "120835.880000", "120837.160000", "120838.440000", "120839.720000", "120841.000000", "120842.280000", "120843.560000", "120844.840000", "120846.120000", "120847.400000", "120848.680000", "120849.960000", "120851.240000", "120852.520000", "120853.800000", "120855.080000", "120856.360000", "120857.640000", "120858.920000", "120900.200000", "120901.480000", "120902.760000", "120904.040000", "120905.320000", "120906.600000", "120907.880000", "120909.160000", "120910.440000", "120911.720000", "120913.000000", "120914.280000", "120915.560000", "120916.840000", "120918.120000", "120919.400000", "120920.680000", "120921.960000", "120923.240000", "120924.520000", "120925.800000", "120927.080000", "120928.360000", "120929.640000", "120930.920000", "120932.200000", "120933.480000", "120934.760000", "120936.040000", "120937.320000", "120938.600000", "120939.880000", "120941.160000", "120942.440000", "120943.720000", "120945.000000", "120946.280000", "120947.560000", "120948.840000", "120950.120000", "120951.400000", "120952.680000", "120953.960000", "120955.240000", "120956.520000", "120957.800000", "120959.080000", "121000.360000", "121001.640000", "121002.920000", "121004.200000", "121005.480000", "121006.760000", "121008.040000", "121009.320000", "121010.600000", "121011.880000", "121013.160000", "121014.440000", "121015.720000", "121017.000000", "121018.280000", "121019.560000", "121020.840000", "121022.120000", "121023.400000", "121024.680000", "121025.960000", "121027.240000", "121028.520000", "121029.800000", "121031.080000", "121032.360000", "121033.640000", "121034.920000", "121036.200000", "121037.480000", "121038.760000", "121040.040000", "121041.320000", "121042.600000", "121043.880000", "121045.160000", "121046.440000", "121047.720000", "121049.000000", "121050.280000", "121051.560000", "121052.840000", "121054.120000", "121055.400000", "121056.680000", "121057.960000", "121059.240000", "121100.520000", "121101.800000", "121103.080000", "121104.360000", "121105.640000", "121106.920000", "121108.200000", "121109.480000", "121110.760000", "121112.040000", "121113.320000", "121114.600000", "121115.880000", "121117.160000", "121118.440000", "121119.720000", "121121.000000", "121122.280000", "121123.560000", "121124.840000", "121126.120000", "121127.400000", "121128.680000", "121129.960000", "121131.240000", "121132.520000", "121133.800000", "121135.080000", "121136.360000", "121137.640000", "121138.920000", "121140.200000"],
      "ContentTime": ["120425.927000", "120425.930000", "120425.933000", "120425.936000", "120425.939000", "120425.942000", "120425.953000", "120425.956000", "120425.959000", "120425.962000", "120425.965000", "120425.968000", "120425.971000", "120425.973000", "120425.976000", "120425.979000", "120425.982000", "120425.988000", "120425.991000", "120425.994000", "120425.997000", "120426.001000", "120426.004000", "120426.007000", "120426.010000", "120426.013000", "120426.016000", "120426.019000", "120426.022000", "120426.027000", "120426.032000", "120426.035000", "120505.921000", "120505.924000", "120505.927000", "120505.930000", "120505.933000", "120505.936000", "120505.939000", "120505.941000", "120505.944000", "120505.947000", "120505.950000", "120505.953000", "120505.956000", "120505.959000", "120505.962000", "120505.965000", "120505.967000", "120505.970000", "120505.973000", "120505.976000", "120505.979000", "120505.982000", "120505.985000", "120505.987000", "120505.990000", "120505.993000", "120506.000000", "120506.003000", "120506.006000", "120506.009000", "120506.012000", "120506.015000", "120545.921000", "120545.924000", "120545.927000", "120545.930000", "120545.933000", "120545.936000", "120545.939000", "120545.942000", "120545.944000", "120545.947000", "120545.950000", "120545.953000", "120545.960000", "120545.963000", "120545.966000", "120545.969000", "120545.972000", "120545.975000", "120545.978000", "120545.981000", "120545.984000", "120545.987000", "120545.989000", "120545.992000", "120545.995000", "120546.016000", "120546.018000", "120546.021000", "120546.024000", "120546.027000", "120546.030000", "120625.922000", "120625.925000", "120625.934000", "120625.937000", "120625.940000", "120625.943000", "120625.946000", "120625.949000", "120625.952000", "120625.954000", "120625.957000", "120625.960000", "120625.963000", "120625.966000", "120625.969000", "120625.972000", "120625.975000", "120625.978000", "120625.981000", "120625.984000", "120625.986000", "120625.989000", "120625.992000", "120625.995000", "120625.998000", "120626.002000", "120626.005000", "120626.008000", "120626.011000", "120626.014000", "120626.017000", "120705.921000", "120705.924000", "120705.927000", "120705.930000", "120705.933000", "120705.936000", "120705.939000", "120705.941000", "120705.944000", "120705.947000", "120705.950000", "120705.953000", "120705.956000", "120705.959000", "120705.962000", "120705.965000", "120705.967000", "120705.970000", "120705.973000", "120705.976000", "120705.979000", "120705.982000", "120705.985000", "120705.988000", "120705.991000", "120705.994000", "120705.996000", "120706.000000", "120706.003000", "120706.006000", "120706.009000", "120745.921000", "120745.924000", "120745.927000", "120745.930000", "120745.933000", "120745.936000", "120745.939000", "120745.942000", "120745.945000", "120745.947000", "120745.950000", "120745.953000", "120745.956000", "120745.959000", "120745.962000", "120745.965000", "120745.968000", "120745.971000", "120745.974000", "120745.976000", "120745.979000", "120745.982000", "120745.985000", "120745.988000", "120745.991000", "120745.994000", "120745.997000", "120746.001000", "120746.004000", "120746.007000", "120746.010000", "120746.013000", "120825.921000", "120825.924000", "120825.927000", "120825.930000", "120825.933000", "120825.936000", "120825.939000", "120825.942000", "120825.944000", "120825.947000", "120825.950000", "120825.953000", "120825.956000", "120825.959000", "120825.963000", "120825.966000", "120825.969000", "120825.972000", "120825.975000", "120825.978000", "120825.981000", "120825.983000", "120825.986000", "120825.989000", "120825.992000", "120825.996000", "120826.000000", "120826.003000", "120826.006000", "120826.009000", "120826.012000", "120905.922000", "120905.925000", "120905.928000", "120905.931000", "120905.934000", "120905.937000", "120905.940000", "120905.943000", "120905.946000", "120905.949000", "120905.952000", "120905.955000", "120905.958000", "120905.960000", "120905.963000", "120905.966000", "120905.969000", "120905.972000", "120905.975000", "120905.978000", "120905.981000", "120905.984000", "120905.987000", "120905.990000", "120905.992000", "120905.995000", "120905.998000", "120906.002000", "120906.005000", "120906.008000", "120906.011000", "120925.921000", "120925.924000", "120925.927000", "120925.930000", "120925.933000", "120925.936000", "120925.939000", "120925.942000", "120925.945000", "120925.948000", "120925.950000", "120925.953000", "120925.956000", "120925.959000", "120925.962000", "120925.975000", "121005.921000", "121005.924000", "121005.928000", "121005.931000", "121005.934000", "121005.937000", "121005.940000", "121005.943000", "121005.946000", "121005.949000", "121005.952000", "121005.955000", "121005.958000", "121005.962000", "121005.975000", "121005.979000", "121005.982000", "121005.985000", "121005.988000", "121005.991000", "121005.994000", "121005.997000", "121006.001000", "121006.004000", "121006.007000", "121006.010000", "121006.014000", "121006.017000", "121006.020000", "121006.023000", "121006.027000", "121045.921000", "121045.924000", "121045.927000", "121045.930000", "121045.933000", "121045.936000", "121045.939000", "121045.941000", "121045.944000", "121045.947000", "121045.950000", "121045.953000", "121045.956000", "121045.959000", "121045.962000", "121045.965000", "121045.967000", "121045.971000", "121045.973000", "121045.976000", "121045.979000", "121045.982000", "121045.985000", "121045.988000", "121045.991000", "121045.994000", "121045.997000", "121046.001000", "121046.004000", "121046.006000", "121046.009000", "121125.922000", "121125.926000", "121125.929000", "121125.932000", "121125.934000", "121125.937000", "121125.940000", "121125.943000", "121125.946000", "121125.949000", "121125.952000", "121125.955000", "121125.958000", "121125.961000", "121125.964000", "121125.967000", "121125.970000", "121125.973000", "121125.976000", "121125.979000", "121125.981000", "121125.984000", "121125.987000", "121125.990000", "121125.993000", "121125.996000", "121126.007000", "121126.010000", "121126.013000", "121126.016000", "121126.019000", "121141.280000", "121141.283000", "121141.286000", "121141.289000", "121141.292000", "121141.295000", "121141.298000", "121141.301000", "121141.304000", "121141.309000", "121141.312000", "121141.316000", "121141.319000"],
      "InstanceCreationTime": ["120425.927000", "120425.930000", "120425.933000", "120425.936000", "120425.939000", "120425.942000", "120425.953000", "120425.956000", "120425.959000", "120425.962000", "120425.965000", "120425.968000", "120425.971000", "120425.973000", "120425.976000", "120425.979000", "120425.982000", "120425.988000", "120425.991000", "120425.994000", "120425.997000", "120426.001000", "120426.004000", "120426.007000", "120426.010000", "120426.013000", "120426.016000", "120426.019000", "120426.022000", "120426.027000", "120426.032000", "120426.035000", "120505.921000", "120505.924000", "120505.927000", "120505.930000", "120505.933000", "120505.936000", "120505.939000", "120505.941000", "120505.944000", "120505.947000", "120505.950000", "120505.953000", "120505.956000", "120505.959000", "120505.962000", "120505.965000", "120505.967000", "120505.970000", "120505.973000", "120505.976000", "120505.979000", "120505.982000", "120505.985000", "120505.987000", "120505.990000", "120505.993000", "120506.000000", "120506.003000", "120506.006000", "120506.009000", "120506.012000", "120506.015000", "120545.921000", "120545.924000", "120545.927000", "120545.930000", "120545.933000", "120545.936000", "120545.939000", "120545.942000", "120545.944000", "120545.947000", "120545.950000", "120545.953000", "120545.960000", "120545.963000", "120545.966000", "120545.969000", "120545.972000", "120545.975000", "120545.978000", "120545.981000", "120545.984000", "120545.987000", "120545.989000", "120545.992000", "120545.995000", "120546.016000", "120546.018000", "120546.021000", "120546.024000", "120546.027000", "120546.030000", "120625.922000", "120625.925000", "120625.934000", "120625.937000", "120625.940000", "120625.943000", "120625.946000", "120625.949000", "120625.952000", "120625.954000", "120625.957000", "120625.960000", "120625.963000", "120625.966000", "120625.969000", "120625.972000", "120625.975000", "120625.978000", "120625.981000", "120625.984000", "120625.986000", "120625.989000", "120625.992000", "120625.995000", "120625.998000", "120626.002000", "120626.005000", "120626.008000", "120626.011000", "120626.014000", "120626.017000", "120705.921000", "120705.924000", "120705.927000", "120705.930000", "120705.933000", "120705.936000", "120705.939000", "120705.941000", "120705.944000", "120705.947000", "120705.950000", "120705.953000", "120705.956000", "120705.959000", "120705.962000", "120705.965000", "120705.967000", "120705.970000", "120705.973000", "120705.976000", "120705.979000", "120705.982000", "120705.985000", "120705.988000", "120705.991000", "120705.994000", "120705.996000", "120706.000000", "120706.003000", "120706.006000", "120706.009000", "120745.921000", "120745.924000", "120745.927000", "120745.930000", "120745.933000", "120745.936000", "120745.939000", "120745.942000", "120745.945000", "120745.947000", "120745.950000", "120745.953000", "120745.956000", "120745.959000", "120745.962000", "120745.965000", "120745.968000", "120745.971000", "120745.974000", "120745.976000", "120745.979000", "120745.982000", "120745.985000", "120745.988000", "120745.991000", "120745.994000", "120745.997000", "120746.001000", "120746.004000", "120746.007000", "120746.010000", "120746.013000", "120825.921000", "120825.924000", "120825.927000", "120825.930000", "120825.933000", "120825.936000", "120825.939000", "120825.942000", "120825.944000", "120825.947000", "120825.950000", "120825.953000", "120825.956000", "120825.959000", "120825.963000", "120825.966000", "120825.969000", "120825.972000", "120825.975000", "120825.978000", "120825.981000", "120825.983000", "120825.986000", "120825.989000", "120825.992000", "120825.996000", "120826.000000", "120826.003000", "120826.006000", "120826.009000", "120826.012000", "120905.922000", "120905.925000", "120905.928000", "120905.931000", "120905.934000", "120905.937000", "120905.940000", "120905.943000", "120905.946000", "120905.949000", "120905.952000", "120905.955000", "120905.958000", "120905.960000", "120905.963000", "120905.966000", "120905.969000", "120905.972000", "120905.975000", "120905.978000", "120905.981000", "120905.984000", "120905.987000", "120905.990000", "120905.992000", "120905.995000", "120905.998000", "120906.002000", "120906.005000", "120906.008000", "120906.011000", "120925.921000", "120925.924000", "120925.927000", "120925.930000", "120925.933000", "120925.936000", "120925.939000", "120925.942000", "120925.945000", "120925.948000", "120925.950000", "120925.953000", "120925.956000", "120925.959000", "120925.962000", "120925.975000", "121005.921000", "121005.924000", "121005.928000", "121005.931000", "121005.934000", "121005.937000", "121005.940000", "121005.943000", "121005.946000", "121005.949000", "121005.952000", "121005.955000", "121005.958000", "121005.962000", "121005.975000", "121005.979000", "121005.982000", "121005.985000", "121005.988000", "121005.991000", "121005.994000", "121005.997000", "121006.001000", "121006.004000", "121006.007000", "121006.010000", "121006.014000", "121006.017000", "121006.020000", "121006.023000", "121006.027000", "121045.921000", "121045.924000", "121045.927000", "121045.930000", "121045.933000", "121045.936000", "121045.939000", "121045.941000", "121045.944000", "121045.947000", "121045.950000", "121045.953000", "121045.956000", "121045.959000", "121045.962000", "121045.965000", "121045.967000", "121045.971000", "121045.973000", "121045.976000", "121045.979000", "121045.982000", "121045.985000", "121045.988000", "121045.991000", "121045.994000", "121045.997000", "121046.001000", "121046.004000", "121046.006000", "121046.009000", "121125.922000", "121125.926000", "121125.929000", "121125.932000", "121125.934000", "121125.937000", "121125.940000", "121125.943000", "121125.946000", "121125.949000", "121125.952000", "121125.955000", "121125.958000", "121125.961000", "121125.964000", "121125.967000", "121125.970000", "121125.973000", "121125.976000", "121125.979000", "121125.981000", "121125.984000", "121125.987000", "121125.990000", "121125.993000", "121125.996000", "121126.007000", "121126.010000", "121126.013000", "121126.016000", "121126.019000", "121141.280000", "121141.283000", "121141.286000", "121141.289000", "121141.292000", "121141.295000", "121141.298000", "121141.301000", "121141.304000", "121141.309000", "121141.312000", "121141.316000", "121141.319000"],
      "InstanceNumber": [1, 2, 3, 4, 5, 6, 7, 8, 9, 10, 11, 12, 13, 14, 15, 16, 17, 18, 19, 20, 21, 22, 23, 24, 25, 26, 27, 28, 29, 30, 31, 32, 33, 34, 35, 36, 37, 38, 39, 40, 41, 42, 43, 44, 45, 46, 47, 48, 49, 50, 51, 52, 53, 54, 55, 56, 57, 58, 59, 60, 61, 62, 63, 64, 65, 66, 67, 68, 69, 70, 71, 72, 73, 74, 75, 76, 77, 78, 79, 80, 81, 82, 83, 84, 85, 86, 87, 88, 89, 90, 91, 92, 93, 94, 95, 96, 97, 98, 99, 100, 101, 102, 103, 104, 105, 106, 107, 108, 109, 110, 111, 112, 113, 114, 115, 116, 117, 118, 119, 120, 121, 122, 123, 124, 125, 126, 127, 128, 129, 130, 131, 132, 133, 134, 135, 136, 137, 138, 139, 140, 141, 142, 143, 144, 145, 146, 147, 148, 149, 150, 151, 152, 153, 154, 155, 156, 157, 158, 159, 160, 161, 162, 163, 164, 165, 166, 167, 168, 169, 170, 171, 172, 173, 174, 175, 176, 177, 178, 179, 180, 181, 182, 183, 184, 185, 186, 187, 188, 189, 190, 191, 192, 193, 194, 195, 196, 197, 198, 199, 200, 201, 202, 203, 204, 205, 206, 207, 208, 209, 210, 211, 212, 213, 214, 215, 216, 217, 218, 219, 220, 221, 222, 223, 224, 225, 226, 227, 228, 229, 230, 231, 232, 233, 234, 235, 236, 237, 238, 239, 240, 241, 242, 243, 244, 245, 246, 247, 248, 249, 250, 251, 252, 253, 254, 255, 256, 257, 258, 259, 260, 261, 262, 263, 264, 265, 266, 267, 268, 269, 270, 271, 272, 273, 274, 275, 276, 277, 278, 279, 280, 281, 282, 283, 284, 285, 286, 287, 288, 289, 290, 291, 292, 293, 294, 295, 296, 297, 298, 299, 300, 301, 302, 303, 304, 305, 306, 307, 308, 309, 310, 311, 312, 313, 314, 315, 316, 317, 318, 319, 320, 321, 322, 323, 324, 325, 326, 327, 328, 329, 330, 331, 332, 333, 334, 335, 336, 337, 338, 339, 340, 341, 342, 343, 344, 345, 346, 347, 348, 349, 350, 351, 352, 353, 354, 355, 356, 357, 358, 359, 360, 361, 362, 363, 364, 365, 366, 367, 368, 369, 370, 371, 372, 373],
