{
  "AcquisitionMatrixPE": 108,
  "AcquisitionNumber": 1,
  "AcquisitionTime": "11:12:50.162500",
  "BandwidthPerPixelPhaseEncode": 15.964,
  "BaseResolution": 108,
  "BodyPartExamined": "BRAIN",
  "ConsistencyInfo": "N4_VE11C_LATEST_20160120",
  "ConversionSoftware": "dcm2niix",
  "ConversionSoftwareVersion": "v1.0.20180622 GCC6.3.0",
  "DerivedVendorReportedEchoSpacing": 0.000580009,
  "DeviceSerialNumber": "66054",
  "DwellTime": 2.1e-06,
  "EchoTime": 0.031,
  "EchoTrainLength": 95,
  "EffectiveEchoSpacing": 0.000580009,
  "FlipAngle": 64,
  "ImageOrientationPatientDICOM": [0.99926, 0.0378062, -0.00706787, -0.0366412, 0.879903, -0.473738],
  "ImageType": [
    "ORIGINAL",
    "PRIMARY",
    "M",
    "ND",
    "MOSAIC"
],
  "InPlanePhaseEncodingDirectionDICOM": "COL",
  "InstitutionAddress": "Chemin_des_Mines_9_Geneve_District_CH_1211",
  "InstitutionName": "Fondation_Campus_Biotech_Geneva",
  "InstitutionalDepartmentName": "Department",
  "MRAcquisitionType": "2D",
  "MagneticFieldStrength": 3,
  "Manufacturer": "Siemens",
  "ManufacturersModelName": "Prisma",
  "Modality": "MR",
  "MultibandAccelerationFactor": 4,
  "PartialFourier": 0.875,
  "PatientPosition": "HFS",
  "PercentPhaseFOV": 100,
  "PhaseEncodingDirection": "j-",
  "PhaseEncodingSteps": 95,
  "PhaseResolution": 1,
  "PixelBandwidth": 2205,
  "ProcedureStepDescription": "J.DRM_Michael",
  "ProtocolName": "Run1_bold_s4_TR1.28",
  "PulseSequenceDetails": "%SiemensSeq%_ep2d_bold",
  "ReceiveCoilActiveElements": "HC1-7;NC1,2",
  "ReceiveCoilName": "HeadNeck_64",
  "ReconMatrixPE": 108,
  "RepetitionTime": 1.28,
  "SAR": 0.0846619,
  "ScanOptions": "PFP_FS",
  "ScanningSequence": "EP",
  "SequenceName": "_epfid2d1_108",
  "SequenceVariant": "SK",
  "SeriesDescription": "Run1_bold_s4_TR1.28",
  "SeriesNumber": 5,
  "ShimSetting": [-1273, -11660, 6460, 542, 33, -154, -30, 87],
  "SliceThickness": 2,
  "SliceTiming": [0.945, 0, 0.63, 0.08, 0.71, 0.1575, 0.7875, 0.2375, 0.8675, 0.395, 1.025, 0.4725, 1.1025, 0.5525, 1.1825, 0.315, 0.945, 0, 0.63, 0.08, 0.71, 0.1575, 0.7875, 0.2375, 0.8675, 0.395, 1.025, 0.4725, 1.1025, 0.5525, 1.1825, 0.315, 0.945, 0, 0.63, 0.08, 0.71, 0.1575, 0.7875, 0.2375, 0.8675, 0.395, 1.025, 0.4725, 1.1025, 0.5525, 1.1825, 0.315, 0.945, 0, 0.63, 0.08, 0.71, 0.1575, 0.7875, 0.2375, 0.8675, 0.395, 1.025, 0.4725, 1.1025, 0.5525, 1.1825, 0.315],
  "SoftwareVersions": "syngo_MR_E11",
  "SpacingBetweenSlices": 2,
  "StationName": "AWP66054",
  "TaskName": "main",
  "TotalReadoutTime": 0.0620609,
  "TxRefAmp": 297.377,
  "dcmmeta_affine": [
    [-1.9892678260803223, -0.07294318825006485, 0.023382361978292465, 113.90023803710938],
    [-0.07526233792304993, 1.7516595125198364, -0.9472925662994385, -53.67198944091797],
    [-0.014070301316678524, 0.9430891871452332, 1.7612751722335815, -104.31133270263672],
    [0.0, 0.0, 0.0, 1.0]
],
  "dcmmeta_reorient_transform": [
    [0.0, -1.0, 0.0, 107.0],
    [1.0, 0.0, 0.0, 0.0],
    [0.0, 0.0, 1.0, 0.0],
    [0.0, 0.0, 0.0, 1.0]
],
  "dcmmeta_shape": [108, 108, 64, 373],
  "dcmmeta_slice_dim": 2,
  "dcmmeta_version": 0.6,
  "global": {
    "const": {
      "AccessionNumber": "",
      "AcquisitionMatrix": [108, 0, 0, 108],
      "AngioFlag": "N",
      "BitsAllocated": 16,
      "BitsStored": 12,
      "BodyPartExamined": "BRAIN",
      "Columns": 864,
      "EchoNumbers": 1,
      "EchoTime": 31.0,
      "EchoTrainLength": 95,
      "FlipAngle": 64.0,
      "HighBit": 11,
      "ImageOrientationPatient": [0.99926009453501, 0.03780619856652, -0.0070678723694, -0.0366412302155, 0.87990335019998, -0.4737378120386],
      "ImagePositionPatient": [-830.46602589264, -824.33202113886, 358.40549358365],
      "ImageType": [
        "ORIGINAL",
        "PRIMARY",
        "M",
        "ND",
        "MOSAIC"
],
      "ImagedNucleus": "1H",
      "ImagingFrequency": 123.257384,
      "InPlanePhaseEncodingDirection": "COL",
      "MRAcquisitionType": "2D",
      "MagneticFieldStrength": 3.0,
      "Manufacturer": "SIEMENS",
      "ManufacturerModelName": "Prisma",
      "Modality": "MR",
      "NumberOfAverages": 1.0,
      "NumberOfPhaseEncodingSteps": 95,
      "PercentPhaseFieldOfView": 100.0,
      "PercentSampling": 100.0,
      "PerformedProcedureStepStartTime": "110443.608000",
      "PhotometricInterpretation": "MONOCHROME2",
      "PixelBandwidth": 2205.0,
      "PixelRepresentation": 0,
      "PixelSpacing": [1.990740776062, 1.990740776062],
      "PositionReferenceIndicator": "",
      "ProtocolName": "Run1_bold_s4_TR1.28",
      "RepetitionTime": 1280.0,
      "Rows": 864,
      "SAR": 0.08466188163534,
      "SamplesPerPixel": 1,
      "ScanOptions": [
        "PFP",
        "FS"
],
      "ScanningSequence": "EP",
      "SequenceName": "*epfid2d1_108",
      "SequenceVariant": "SK",
      "SeriesDescription": "Run1_bold_s4_TR1.28",
      "SeriesNumber": 5,
      "SeriesTime": "111305.923000",
      "SliceLocation": -65.107312136928,
      "SliceThickness": 2.0,
      "SmallestImagePixelValue": 0,
      "SoftwareVersions": "syngo MR E11",
      "SpacingBetweenSlices": 2.0000000300754,
      "SpecificCharacterSet": "ISO_IR 100",
      "StudyID": "1",
      "StudyTime": "110443.533000",
      "TransmitCoilName": "Body",
      "VariableFlipAngleFlag": "N",
      "WindowCenterWidthExplanation": "Algo1",
      "dBdt": 0.0},
    "slices": {}
  },
  "time": {
    "samples": {
      "AcquisitionNumber": [1, 2, 3, 4, 5, 6, 7, 8, 9, 10, 11, 12, 13, 14, 15, 16, 17, 18, 19, 20, 21, 22, 23, 24, 25, 26, 27, 28, 29, 30, 31, 32, 33, 34, 35, 36, 37, 38, 39, 40, 41, 42, 43, 44, 45, 46, 47, 48, 49, 50, 51, 52, 53, 54, 55, 56, 57, 58, 59, 60, 61, 62, 63, 64, 65, 66, 67, 68, 69, 70, 71, 72, 73, 74, 75, 76, 77, 78, 79, 80, 81, 82, 83, 84, 85, 86, 87, 88, 89, 90, 91, 92, 93, 94, 95, 96, 97, 98, 99, 100, 101, 102, 103, 104, 105, 106, 107, 108, 109, 110, 111, 112, 113, 114, 115, 116, 117, 118, 119, 120, 121, 122, 123, 124, 125, 126, 127, 128, 129, 130, 131, 132, 133, 134, 135, 136, 137, 138, 139, 140, 141, 142, 143, 144, 145, 146, 147, 148, 149, 150, 151, 152, 153, 154, 155, 156, 157, 158, 159, 160, 161, 162, 163, 164, 165, 166, 167, 168, 169, 170, 171, 172, 173, 174, 175, 176, 177, 178, 179, 180, 181, 182, 183, 184, 185, 186, 187, 188, 189, 190, 191, 192, 193, 194, 195, 196, 197, 198, 199, 200, 201, 202, 203, 204, 205, 206, 207, 208, 209, 210, 211, 212, 213, 214, 215, 216, 217, 218, 219, 220, 221, 222, 223, 224, 225, 226, 227, 228, 229, 230, 231, 232, 233, 234, 235, 236, 237, 238, 239, 240, 241, 242, 243, 244, 245, 246, 247, 248, 249, 250, 251, 252, 253, 254, 255, 256, 257, 258, 259, 260, 261, 262, 263, 264, 265, 266, 267, 268, 269, 270, 271, 272, 273, 274, 275, 276, 277, 278, 279, 280, 281, 282, 283, 284, 285, 286, 287, 288, 289, 290, 291, 292, 293, 294, 295, 296, 297, 298, 299, 300, 301, 302, 303, 304, 305, 306, 307, 308, 309, 310, 311, 312, 313, 314, 315, 316, 317, 318, 319, 320, 321, 322, 323, 324, 325, 326, 327, 328, 329, 330, 331, 332, 333, 334, 335, 336, 337, 338, 339, 340, 341, 342, 343, 344, 345, 346, 347, 348, 349, 350, 351, 352, 353, 354, 355, 356, 357, 358, 359, 360, 361, 362, 363, 364, 365, 366, 367, 368, 369, 370, 371, 372, 373],
      "AcquisitionTime": ["111250.162500", "111251.442500", "111252.722500", "111254.002500", "111255.282500", "111256.562500", "111257.842500", "111259.122500", "111300.402500", "111301.682500", "111302.962500", "111304.242500", "111305.522500", "111306.802500", "111308.082500", "111309.362500", "111310.642500", "111311.922500", "111313.202500", "111314.482500", "111315.762500", "111317.042500", "111318.322500", "111319.602500", "111320.882500", "111322.162500", "111323.442500", "111324.722500", "111326.002500", "111327.282500", "111328.562500", "111329.842500", "111331.122500", "111332.402500", "111333.682500", "111334.962500", "111336.242500", "111337.522500", "111338.802500", "111340.082500", "111341.362500", "111342.642500", "111343.922500", "111345.202500", "111346.482500", "111347.762500", "111349.042500", "111350.322500", "111351.602500", "111352.882500", "111354.162500", "111355.442500", "111356.722500", "111358.002500", "111359.282500", "111400.562500", "111401.842500", "111403.122500", "111404.402500", "111405.682500", "111406.962500", "111408.242500", "111409.522500", "111410.802500", "111412.082500", "111413.362500", "111414.642500", "111415.922500", "111417.202500", "111418.482500", "111419.762500", "111421.042500", "111422.322500", "111423.602500", "111424.882500", "111426.162500", "111427.442500", "111428.722500", "111430.002500", "111431.282500", "111432.562500", "111433.842500", "111435.122500", "111436.402500", "111437.682500", "111438.962500", "111440.242500", "111441.522500", "111442.802500", "111444.082500", "111445.362500", "111446.642500", "111447.922500", "111449.202500", "111450.482500", "111451.762500", "111453.042500", "111454.322500", "111455.602500", "111456.882500", "111458.162500", "111459.442500", "111500.722500", "111502.002500", "111503.282500", "111504.562500", "111505.842500", "111507.122500", "111508.402500", "111509.682500", "111510.962500", "111512.242500", "111513.522500", "111514.802500", "111516.082500", "111517.362500", "111518.642500", "111519.922500", "111521.202500", "111522.482500", "111523.762500", "111525.042500", "111526.322500", "111527.602500", "111528.882500", "111530.162500", "111531.442500", "111532.722500", "111534.002500", "111535.282500", "111536.562500", "111537.842500", "111539.122500", "111540.402500", "111541.682500", "111542.962500", "111544.242500", "111545.522500", "111546.802500", "111548.082500", "111549.362500", "111550.642500", "111551.922500", "111553.202500", "111554.482500", "111555.762500", "111557.042500", "111558.322500", "111559.602500", "111600.882500", "111602.162500", "111603.442500", "111604.722500", "111606.002500", "111607.282500", "111608.562500", "111609.842500", "111611.122500", "111612.402500", "111613.682500", "111614.962500", "111616.242500", "111617.522500", "111618.802500", "111620.082500", "111621.362500", "111622.642500", "111623.922500", "111625.202500", "111626.482500", "111627.762500", "111629.042500", "111630.322500", "111631.602500", "111632.882500", "111634.162500", "111635.442500", "111636.722500", "111638.002500", "111639.282500", "111640.562500", "111641.842500", "111643.122500", "111644.402500", "111645.682500", "111646.962500", "111648.242500", "111649.522500", "111650.802500", "111652.082500", "111653.362500", "111654.642500", "111655.922500", "111657.202500", "111658.482500", "111659.762500", "111701.042500", "111702.322500", "111703.602500", "111704.882500", "111706.162500", "111707.442500", "111708.722500", "111710.002500", "111711.282500", "111712.562500", "111713.842500", "111715.122500", "111716.402500", "111717.682500", "111718.962500", "111720.242500", "111721.522500", "111722.802500", "111724.082500", "111725.362500", "111726.642500", "111727.922500", "111729.202500", "111730.482500", "111731.762500", "111733.042500", "111734.322500", "111735.602500", "111736.882500", "111738.162500", "111739.442500", "111740.722500", "111742.002500", "111743.282500", "111744.562500", "111745.842500", "111747.122500", "111748.402500", "111749.682500", "111750.962500", "111752.242500", "111753.522500", "111754.802500", "111756.082500", "111757.362500", "111758.642500", "111759.922500", "111801.202500", "111802.482500", "111803.762500", "111805.042500", "111806.322500", "111807.602500", "111808.882500", "111810.162500", "111811.442500", "111812.722500", "111814.002500", "111815.282500", "111816.562500", "111817.842500", "111819.122500", "111820.402500", "111821.682500", "111822.962500", "111824.242500", "111825.522500", "111826.802500", "111828.082500", "111829.362500", "111830.642500", "111831.922500", "111833.202500", "111834.482500", "111835.762500", "111837.042500", "111838.322500", "111839.602500", "111840.882500", "111842.162500", "111843.442500", "111844.722500", "111846.002500", "111847.282500", "111848.562500", "111849.842500", "111851.122500", "111852.402500", "111853.682500", "111854.962500", "111856.242500", "111857.522500", "111858.802500", "111900.082500", "111901.362500", "111902.642500", "111903.922500", "111905.202500", "111906.482500", "111907.762500", "111909.042500", "111910.322500", "111911.602500", "111912.882500", "111914.162500", "111915.442500", "111916.722500", "111918.002500", "111919.282500", "111920.562500", "111921.842500", "111923.122500", "111924.402500", "111925.682500", "111926.962500", "111928.242500", "111929.522500", "111930.802500", "111932.082500", "111933.362500", "111934.642500", "111935.922500", "111937.202500", "111938.482500", "111939.762500", "111941.042500", "111942.322500", "111943.602500", "111944.882500", "111946.162500", "111947.442500", "111948.722500", "111950.002500", "111951.282500", "111952.562500", "111953.842500", "111955.122500", "111956.402500", "111957.682500", "111958.962500", "112000.242500", "112001.522500", "112002.802500", "112004.082500", "112005.362500", "112006.642500", "112007.922500", "112009.202500", "112010.482500", "112011.762500", "112013.042500", "112014.322500", "112015.602500", "112016.882500", "112018.162500", "112019.442500", "112020.722500", "112022.002500", "112023.282500", "112024.562500", "112025.842500", "112027.122500", "112028.402500", "112029.682500", "112030.962500", "112032.242500", "112033.522500", "112034.802500", "112036.082500", "112037.362500", "112038.642500", "112039.922500", "112041.202500", "112042.482500", "112043.762500", "112045.042500", "112046.322500"],
      "ContentTime": ["111305.927000", "111305.930000", "111305.933000", "111305.936000", "111305.939000", "111305.942000", "111305.945000", "111305.947000", "111305.950000", "111305.953000", "111305.956000", "111305.959000", "111345.921000", "111345.924000", "111345.927000", "111345.930000", "111345.933000", "111345.936000", "111345.939000", "111345.942000", "111345.944000", "111345.947000", "111345.950000", "111345.953000", "111345.956000", "111345.959000", "111345.962000", "111345.965000", "111345.968000", "111345.971000", "111345.974000", "111345.976000", "111345.979000", "111345.982000", "111345.985000", "111345.988000", "111345.991000", "111345.994000", "111345.997000", "111346.001000", "111346.004000", "111346.007000", "111346.009000", "111425.921000", "111425.924000", "111425.927000", "111425.930000", "111425.933000", "111425.936000", "111425.939000", "111425.941000", "111425.944000", "111425.952000", "111425.955000", "111425.957000", "111425.961000", "111425.964000", "111425.966000", "111425.969000", "111425.972000", "111425.975000", "111425.978000", "111425.981000", "111425.984000", "111425.987000", "111425.990000", "111425.992000", "111425.995000", "111425.998000", "111426.002000", "111426.005000", "111426.008000", "111426.011000", "111426.014000", "111505.931000", "111505.934000", "111505.937000", "111505.940000", "111505.943000", "111505.946000", "111505.949000", "111505.952000", "111505.954000", "111505.957000", "111505.960000", "111505.963000", "111505.966000", "111505.970000", "111505.975000", "111505.980000", "111505.983000", "111505.987000", "111505.990000", "111505.993000", "111505.996000", "111506.001000", "111506.004000", "111506.007000", "111506.010000", "111506.013000", "111506.016000", "111506.018000", "111506.021000", "111506.024000", "111506.027000", "111545.922000", "111545.925000", "111545.928000", "111545.931000", "111545.934000", "111545.937000", "111545.939000", "111545.942000", "111545.945000", "111545.948000", "111545.951000", "111545.954000", "111545.957000", "111545.960000", "111545.963000", "111545.965000", "111545.969000", "111545.971000", "111545.980000", "111545.983000", "111545.986000", "111545.989000", "111545.992000", "111545.995000", "111545.998000", "111546.002000", "111546.004000", "111546.007000", "111546.010000", "111546.013000", "111546.016000", "111546.019000", "111625.921000", "111625.924000", "111625.927000", "111625.930000", "111625.933000", "111625.936000", "111625.939000", "111625.942000", "111625.944000", "111625.947000", "111625.950000", "111625.953000", "111625.956000", "111625.959000", "111625.962000", "111625.965000", "111625.968000", "111625.971000", "111625.974000", "111625.977000", "111625.979000", "111625.982000", "111625.985000", "111625.988000", "111625.991000", "111625.994000", "111625.997000", "111626.001000", "111626.004000", "111626.007000", "111626.010000", "111705.921000", "111705.924000", "111705.927000", "111705.930000", "111705.933000", "111705.936000", "111705.939000", "111705.942000", "111705.944000", "111705.947000", "111705.950000", "111705.953000", "111705.956000", "111705.959000", "111705.962000", "111705.965000", "111705.968000", "111705.971000", "111705.974000", "111705.977000", "111705.979000", "111705.983000", "111705.985000", "111705.988000", "111705.991000", "111705.994000", "111705.997000", "111706.001000", "111706.004000", "111706.007000", "111706.010000", "111745.922000", "111745.925000", "111745.928000", "111745.931000", "111745.935000", "111745.938000", "111745.941000", "111745.944000", "111745.948000", "111745.951000", "111745.954000", "111745.957000", "111745.960000", "111745.976000", "111745.979000", "111745.982000", "111745.985000", "111745.987000", "111745.991000", "111745.993000", "111745.996000", "111746.000000", "111746.003000", "111746.006000", "111746.009000", "111746.012000", "111746.015000", "111746.018000", "111746.021000", "111746.024000", "111746.027000", "111825.921000", "111825.924000", "111825.927000", "111825.930000", "111825.933000", "111825.936000", "111825.939000", "111825.942000", "111825.945000", "111825.948000", "111825.951000", "111825.953000", "111825.956000", "111825.959000", "111825.962000", "111825.965000", "111825.968000", "111825.971000", "111825.974000", "111825.977000", "111825.980000", "111825.982000", "111825.985000", "111825.988000", "111825.991000", "111825.994000", "111825.997000", "111826.001000", "111826.004000", "111826.007000", "111826.010000", "111826.019000", "111905.921000", "111905.924000", "111905.927000", "111905.930000", "111905.932000", "111905.935000", "111905.938000", "111905.941000", "111905.944000", "111905.947000", "111905.950000", "111905.953000", "111905.956000", "111905.959000", "111905.962000", "111905.964000", "111905.967000", "111905.970000", "111905.973000", "111905.976000", "111905.979000", "111905.982000", "111905.985000", "111905.988000", "111905.991000", "111905.993000", "111905.996000", "111906.000000", "111906.003000", "111906.006000", "111906.009000", "111925.921000", "111925.924000", "111925.927000", "111925.930000", "111925.933000", "111925.936000", "111925.939000", "111925.941000", "111925.944000", "111925.947000", "111925.950000", "111925.953000", "111925.956000", "111925.959000", "111925.962000", "111925.964000", "112005.922000", "112005.925000", "112005.928000", "112005.931000", "112005.934000", "112005.937000", "112005.940000", "112005.943000", "112005.946000", "112005.949000", "112005.952000", "112005.955000", "112005.957000", "112005.960000", "112005.963000", "112005.966000", "112005.969000", "112005.972000", "112005.975000", "112005.978000", "112005.981000", "112005.984000", "112005.987000", "112005.989000", "112005.992000", "112005.995000", "112005.998000", "112006.002000", "112006.005000", "112006.008000", "112006.011000", "112045.921000", "112045.925000", "112045.928000", "112045.931000", "112045.934000", "112045.937000", "112045.940000", "112045.942000", "112045.945000", "112045.948000", "112045.951000", "112045.954000", "112045.957000", "112045.960000", "112045.963000", "112045.966000", "112045.969000", "112045.971000", "112045.974000", "112045.977000", "112045.980000", "112045.983000", "112045.986000", "112045.989000", "112045.992000", "112045.995000", "112045.998000", "112046.002000", "112046.005000", "112046.008000", "112046.011000", "112047.689000", "112047.693000"],
      "InstanceCreationTime": ["111305.927000", "111305.930000", "111305.933000", "111305.936000", "111305.939000", "111305.942000", "111305.945000", "111305.947000", "111305.950000", "111305.953000", "111305.956000", "111305.959000", "111345.921000", "111345.924000", "111345.927000", "111345.930000", "111345.933000", "111345.936000", "111345.939000", "111345.942000", "111345.944000", "111345.947000", "111345.950000", "111345.953000", "111345.956000", "111345.959000", "111345.962000", "111345.965000", "111345.968000", "111345.971000", "111345.974000", "111345.976000", "111345.979000", "111345.982000", "111345.985000", "111345.988000", "111345.991000", "111345.994000", "111345.997000", "111346.001000", "111346.004000", "111346.007000", "111346.009000", "111425.921000", "111425.924000", "111425.927000", "111425.930000", "111425.933000", "111425.936000", "111425.939000", "111425.941000", "111425.944000", "111425.952000", "111425.955000", "111425.957000", "111425.961000", "111425.964000", "111425.966000", "111425.969000", "111425.972000", "111425.975000", "111425.978000", "111425.981000", "111425.984000", "111425.987000", "111425.990000", "111425.992000", "111425.995000", "111425.998000", "111426.002000", "111426.005000", "111426.008000", "111426.011000", "111426.014000", "111505.931000", "111505.934000", "111505.937000", "111505.940000", "111505.943000", "111505.946000", "111505.949000", "111505.952000", "111505.954000", "111505.957000", "111505.960000", "111505.963000", "111505.966000", "111505.970000", "111505.975000", "111505.980000", "111505.983000", "111505.987000", "111505.990000", "111505.993000", "111505.996000", "111506.001000", "111506.004000", "111506.007000", "111506.010000", "111506.013000", "111506.016000", "111506.018000", "111506.021000", "111506.024000", "111506.027000", "111545.922000", "111545.925000", "111545.928000", "111545.931000", "111545.934000", "111545.937000", "111545.939000", "111545.942000", "111545.945000", "111545.948000", "111545.951000", "111545.954000", "111545.957000", "111545.960000", "111545.963000", "111545.965000", "111545.969000", "111545.971000", "111545.980000", "111545.983000", "111545.986000", "111545.989000", "111545.992000", "111545.995000", "111545.998000", "111546.002000", "111546.004000", "111546.007000", "111546.010000", "111546.013000", "111546.016000", "111546.019000", "111625.921000", "111625.924000", "111625.927000", "111625.930000", "111625.933000", "111625.936000", "111625.939000", "111625.942000", "111625.944000", "111625.947000", "111625.950000", "111625.953000", "111625.956000", "111625.959000", "111625.962000", "111625.965000", "111625.968000", "111625.971000", "111625.974000", "111625.977000", "111625.979000", "111625.982000", "111625.985000", "111625.988000", "111625.991000", "111625.994000", "111625.997000", "111626.001000", "111626.004000", "111626.007000", "111626.010000", "111705.921000", "111705.924000", "111705.927000", "111705.930000", "111705.933000", "111705.936000", "111705.939000", "111705.942000", "111705.944000", "111705.947000", "111705.950000", "111705.953000", "111705.956000", "111705.959000", "111705.962000", "111705.965000", "111705.968000", "111705.971000", "111705.974000", "111705.977000", "111705.979000", "111705.983000", "111705.985000", "111705.988000", "111705.991000", "111705.994000", "111705.997000", "111706.001000", "111706.004000", "111706.007000", "111706.010000", "111745.922000", "111745.925000", "111745.928000", "111745.931000", "111745.935000", "111745.938000", "111745.941000", "111745.944000", "111745.948000", "111745.951000", "111745.954000", "111745.957000", "111745.960000", "111745.976000", "111745.979000", "111745.982000", "111745.985000", "111745.987000", "111745.991000", "111745.993000", "111745.996000", "111746.000000", "111746.003000", "111746.006000", "111746.009000", "111746.012000", "111746.015000", "111746.018000", "111746.021000", "111746.024000", "111746.027000", "111825.921000", "111825.924000", "111825.927000", "111825.930000", "111825.933000", "111825.936000", "111825.939000", "111825.942000", "111825.945000", "111825.948000", "111825.951000", "111825.953000", "111825.956000", "111825.959000", "111825.962000", "111825.965000", "111825.968000", "111825.971000", "111825.974000", "111825.977000", "111825.980000", "111825.982000", "111825.985000", "111825.988000", "111825.991000", "111825.994000", "111825.997000", "111826.001000", "111826.004000", "111826.007000", "111826.010000", "111826.019000", "111905.921000", "111905.924000", "111905.927000", "111905.930000", "111905.932000", "111905.935000", "111905.938000", "111905.941000", "111905.944000", "111905.947000", "111905.950000", "111905.953000", "111905.956000", "111905.959000", "111905.962000", "111905.964000", "111905.967000", "111905.970000", "111905.973000", "111905.976000", "111905.979000", "111905.982000", "111905.985000", "111905.988000", "111905.991000", "111905.993000", "111905.996000", "111906.000000", "111906.003000", "111906.006000", "111906.009000", "111925.921000", "111925.924000", "111925.927000", "111925.930000", "111925.933000", "111925.936000", "111925.939000", "111925.941000", "111925.944000", "111925.947000", "111925.950000", "111925.953000", "111925.956000", "111925.959000", "111925.962000", "111925.964000", "112005.922000", "112005.925000", "112005.928000", "112005.931000", "112005.934000", "112005.937000", "112005.940000", "112005.943000", "112005.946000", "112005.949000", "112005.952000", "112005.955000", "112005.957000", "112005.960000", "112005.963000", "112005.966000", "112005.969000", "112005.972000", "112005.975000", "112005.978000", "112005.981000", "112005.984000", "112005.987000", "112005.989000", "112005.992000", "112005.995000", "112005.998000", "112006.002000", "112006.005000", "112006.008000", "112006.011000", "112045.921000", "112045.925000", "112045.928000", "112045.931000", "112045.934000", "112045.937000", "112045.940000", "112045.942000", "112045.945000", "112045.948000", "112045.951000", "112045.954000", "112045.957000", "112045.960000", "112045.963000", "112045.966000", "112045.969000", "112045.971000", "112045.974000", "112045.977000", "112045.980000", "112045.983000", "112045.986000", "112045.989000", "112045.992000", "112045.995000", "112045.998000", "112046.002000", "112046.005000", "112046.008000", "112046.011000", "112047.689000", "112047.693000"],
      "InstanceNumber": [1, 2, 3, 4, 5, 6, 7, 8, 9, 10, 11, 12, 13, 14, 15, 16, 17, 18, 19, 20, 21, 22, 23, 24, 25, 26, 27, 28, 29, 30, 31, 32, 33, 34, 35, 36, 37, 38, 39, 40, 41, 42, 43, 44, 45, 46, 47, 48, 49, 50, 51, 52, 53, 54, 55, 56, 57, 58, 59, 60, 61, 62, 63, 64, 65, 66, 67, 68, 69, 70, 71, 72, 73, 74, 75, 76, 77, 78, 79, 80, 81, 82, 83, 84, 85, 86, 87, 88, 89, 90, 91, 92, 93, 94, 95, 96, 97, 98, 99, 100, 101, 102, 103, 104, 105, 106, 107, 108, 109, 110, 111, 112, 113, 114, 115, 116, 117, 118, 119, 120, 121, 122, 123, 124, 125, 126, 127, 128, 129, 130, 131, 132, 133, 134, 135, 136, 137, 138, 139, 140, 141, 142, 143, 144, 145, 146, 147, 148, 149, 150, 151, 152, 153, 154, 155, 156, 157, 158, 159, 160, 161, 162, 163, 164, 165, 166, 167, 168, 169, 170, 171, 172, 173, 174, 175, 176, 177, 178, 179, 180, 181, 182, 183, 184, 185, 186, 187, 188, 189, 190, 191, 192, 193, 194, 195, 196, 197, 198, 199, 200, 201, 202, 203, 204, 205, 206, 207, 208, 209, 210, 211, 212, 213, 214, 215, 216, 217, 218, 219, 220, 221, 222, 223, 224, 225, 226, 227, 228, 229, 230, 231, 232, 233, 234, 235, 236, 237, 238, 239, 240, 241, 242, 243, 244, 245, 246, 247, 248, 249, 250, 251, 252, 253, 254, 255, 256, 257, 258, 259, 260, 261, 262, 263, 264, 265, 266, 267, 268, 269, 270, 271, 272, 273, 274, 275, 276, 277, 278, 279, 280, 281, 282, 283, 284, 285, 286, 287, 288, 289, 290, 291, 292, 293, 294, 295, 296, 297, 298, 299, 300, 301, 302, 303, 304, 305, 306, 307, 308, 309, 310, 311, 312, 313, 314, 315, 316, 317, 318, 319, 320, 321, 322, 323, 324, 325, 326, 327, 328, 329, 330, 331, 332, 333, 334, 335, 336, 337, 338, 339, 340, 341, 342, 343, 344, 345, 346, 347, 348, 349, 350, 351, 352, 353, 354, 355, 356, 357, 358, 359, 360, 361, 362, 363, 364, 365, 366, 367, 368, 369, 370, 371, 372, 373],
