{
  "AcquisitionMatrixPE": 108,
  "AcquisitionNumber": 1,
  "AcquisitionTime": "11:48:13.627500",
  "BandwidthPerPixelPhaseEncode": 15.964,
  "BaseResolution": 108,
  "BodyPartExamined": "BRAIN",
  "ConsistencyInfo": "N4_VE11C_LATEST_20160120",
  "ConversionSoftware": "dcm2niix",
  "ConversionSoftwareVersion": "v1.0.20180622 GCC6.3.0",
  "DerivedVendorReportedEchoSpacing": 0.000580009,
  "DeviceSerialNumber": "66054",
  "DwellTime": 2.1e-06,
  "EchoTime": 0.031,
  "EchoTrainLength": 95,
  "EffectiveEchoSpacing": 0.000580009,
  "FlipAngle": 64,
  "ImageOrientationPatientDICOM": [0.99926, 0.0378062, -0.00706787, -0.0366412, 0.879903, -0.473738],
  "ImageType": [
    "ORIGINAL",
    "PRIMARY",
    "M",
    "ND",
    "MOSAIC"
],
  "InPlanePhaseEncodingDirectionDICOM": "COL",
  "InstitutionAddress": "Chemin_des_Mines_9_Geneve_District_CH_1211",
  "InstitutionName": "Fondation_Campus_Biotech_Geneva",
  "InstitutionalDepartmentName": "Department",
  "MRAcquisitionType": "2D",
  "MagneticFieldStrength": 3,
  "Manufacturer": "Siemens",
  "ManufacturersModelName": "Prisma",
  "Modality": "MR",
  "MultibandAccelerationFactor": 4,
  "PartialFourier": 0.875,
  "PatientPosition": "HFS",
  "PercentPhaseFOV": 100,
  "PhaseEncodingDirection": "j-",
  "PhaseEncodingSteps": 95,
  "PhaseResolution": 1,
  "PixelBandwidth": 2205,
  "ProcedureStepDescription": "J.DRM_Michael",
  "ProtocolName": "Run4_bold_s4_TR1.28",
  "PulseSequenceDetails": "%SiemensSeq%_ep2d_bold",
  "ReceiveCoilActiveElements": "HC1-7;NC1,2",
  "ReceiveCoilName": "HeadNeck_64",
  "ReconMatrixPE": 108,
  "RepetitionTime": 1.28,
  "SAR": 0.0846619,
  "ScanOptions": "PFP_FS",
  "ScanningSequence": "EP",
  "SequenceName": "_epfid2d1_108",
  "SequenceVariant": "SK",
  "SeriesDescription": "Run4_bold_s4_TR1.28",
  "SeriesNumber": 11,
  "ShimSetting": [-1273, -11660, 6460, 542, 33, -154, -30, 87],
  "SliceThickness": 2,
  "SliceTiming": [0.945, 0, 0.63, 0.08, 0.71, 0.1575, 0.7875, 0.2375, 0.8675, 0.395, 1.025, 0.4725, 1.1025, 0.5525, 1.1825, 0.315, 0.945, 0, 0.63, 0.08, 0.71, 0.1575, 0.7875, 0.2375, 0.8675, 0.395, 1.025, 0.4725, 1.1025, 0.5525, 1.1825, 0.315, 0.945, 0, 0.63, 0.08, 0.71, 0.1575, 0.7875, 0.2375, 0.8675, 0.395, 1.025, 0.4725, 1.1025, 0.5525, 1.1825, 0.315, 0.945, 0, 0.63, 0.08, 0.71, 0.1575, 0.7875, 0.2375, 0.8675, 0.395, 1.025, 0.4725, 1.1025, 0.5525, 1.1825, 0.315],
  "SoftwareVersions": "syngo_MR_E11",
  "SpacingBetweenSlices": 2,
  "StationName": "AWP66054",
  "TaskName": "main",
  "TotalReadoutTime": 0.0620609,
  "TxRefAmp": 297.377,
  "dcmmeta_affine": [
    [-1.9892678260803223, -0.07294318825006485, 0.023382361978292465, 113.90023803710938],
    [-0.07526233792304993, 1.7516595125198364, -0.9472925662994385, -53.67198944091797],
    [-0.014070301316678524, 0.9430891871452332, 1.7612751722335815, -104.31133270263672],
    [0.0, 0.0, 0.0, 1.0]
],
  "dcmmeta_reorient_transform": [
    [0.0, -1.0, 0.0, 107.0],
    [1.0, 0.0, 0.0, 0.0],
    [0.0, 0.0, 1.0, 0.0],
    [0.0, 0.0, 0.0, 1.0]
],
  "dcmmeta_shape": [108, 108, 64, 373],
  "dcmmeta_slice_dim": 2,
  "dcmmeta_version": 0.6,
  "global": {
    "const": {
      "AccessionNumber": "",
      "AcquisitionMatrix": [108, 0, 0, 108],
      "AngioFlag": "N",
      "BitsAllocated": 16,
      "BitsStored": 12,
      "BodyPartExamined": "BRAIN",
      "Columns": 864,
      "EchoNumbers": 1,
      "EchoTime": 31.0,
      "EchoTrainLength": 95,
      "FlipAngle": 64.0,
      "HighBit": 11,
      "ImageOrientationPatient": [0.99926009453501, 0.03780619856652, -0.0070678723694, -0.0366412302155, 0.87990335019998, -0.4737378120386],
      "ImagePositionPatient": [-830.46602589264, -824.33202113886, 358.40549358365],
      "ImageType": [
        "ORIGINAL",
        "PRIMARY",
        "M",
        "ND",
        "MOSAIC"
],
      "ImagedNucleus": "1H",
      "ImagingFrequency": 123.257402,
      "InPlanePhaseEncodingDirection": "COL",
      "MRAcquisitionType": "2D",
      "MagneticFieldStrength": 3.0,
      "Manufacturer": "SIEMENS",
      "ManufacturerModelName": "Prisma",
      "Modality": "MR",
      "NumberOfAverages": 1.0,
      "NumberOfPhaseEncodingSteps": 95,
      "PercentPhaseFieldOfView": 100.0,
      "PercentSampling": 100.0,
      "PerformedProcedureStepStartTime": "110443.608000",
      "PhotometricInterpretation": "MONOCHROME2",
      "PixelBandwidth": 2205.0,
      "PixelRepresentation": 0,
      "PixelSpacing": [1.990740776062, 1.990740776062],
      "PositionReferenceIndicator": "",
      "ProtocolName": "Run4_bold_s4_TR1.28",
      "RepetitionTime": 1280.0,
      "Rows": 864,
      "SAR": 0.08466188163534,
      "SamplesPerPixel": 1,
      "ScanOptions": [
        "PFP",
        "FS"
],
      "ScanningSequence": "EP",
      "SequenceName": "*epfid2d1_108",
      "SequenceVariant": "SK",
      "SeriesDescription": "Run4_bold_s4_TR1.28",
      "SeriesNumber": 11,
      "SeriesTime": "114845.994000",
      "SliceLocation": -65.107312136928,
      "SliceThickness": 2.0,
      "SmallestImagePixelValue": 0,
      "SoftwareVersions": "syngo MR E11",
      "SpacingBetweenSlices": 2.0000000300754,
      "SpecificCharacterSet": "ISO_IR 100",
      "StudyID": "1",
      "StudyTime": "110443.533000",
      "TransmitCoilName": "Body",
      "VariableFlipAngleFlag": "N",
      "WindowCenterWidthExplanation": "Algo1",
      "dBdt": 0.0},
    "slices": {}
  },
  "time": {
    "samples": {
      "AcquisitionNumber": [1, 2, 3, 4, 5, 6, 7, 8, 9, 10, 11, 12, 13, 14, 15, 16, 17, 18, 19, 20, 21, 22, 23, 24, 25, 26, 27, 28, 29, 30, 31, 32, 33, 34, 35, 36, 37, 38, 39, 40, 41, 42, 43, 44, 45, 46, 47, 48, 49, 50, 51, 52, 53, 54, 55, 56, 57, 58, 59, 60, 61, 62, 63, 64, 65, 66, 67, 68, 69, 70, 71, 72, 73, 74, 75, 76, 77, 78, 79, 80, 81, 82, 83, 84, 85, 86, 87, 88, 89, 90, 91, 92, 93, 94, 95, 96, 97, 98, 99, 100, 101, 102, 103, 104, 105, 106, 107, 108, 109, 110, 111, 112, 113, 114, 115, 116, 117, 118, 119, 120, 121, 122, 123, 124, 125, 126, 127, 128, 129, 130, 131, 132, 133, 134, 135, 136, 137, 138, 139, 140, 141, 142, 143, 144, 145, 146, 147, 148, 149, 150, 151, 152, 153, 154, 155, 156, 157, 158, 159, 160, 161, 162, 163, 164, 165, 166, 167, 168, 169, 170, 171, 172, 173, 174, 175, 176, 177, 178, 179, 180, 181, 182, 183, 184, 185, 186, 187, 188, 189, 190, 191, 192, 193, 194, 195, 196, 197, 198, 199, 200, 201, 202, 203, 204, 205, 206, 207, 208, 209, 210, 211, 212, 213, 214, 215, 216, 217, 218, 219, 220, 221, 222, 223, 224, 225, 226, 227, 228, 229, 230, 231, 232, 233, 234, 235, 236, 237, 238, 239, 240, 241, 242, 243, 244, 245, 246, 247, 248, 249, 250, 251, 252, 253, 254, 255, 256, 257, 258, 259, 260, 261, 262, 263, 264, 265, 266, 267, 268, 269, 270, 271, 272, 273, 274, 275, 276, 277, 278, 279, 280, 281, 282, 283, 284, 285, 286, 287, 288, 289, 290, 291, 292, 293, 294, 295, 296, 297, 298, 299, 300, 301, 302, 303, 304, 305, 306, 307, 308, 309, 310, 311, 312, 313, 314, 315, 316, 317, 318, 319, 320, 321, 322, 323, 324, 325, 326, 327, 328, 329, 330, 331, 332, 333, 334, 335, 336, 337, 338, 339, 340, 341, 342, 343, 344, 345, 346, 347, 348, 349, 350, 351, 352, 353, 354, 355, 356, 357, 358, 359, 360, 361, 362, 363, 364, 365, 366, 367, 368, 369, 370, 371, 372, 373],
      "AcquisitionTime": ["114813.627500", "114814.907500", "114816.187500", "114817.467500", "114818.747500", "114820.027500", "114821.307500", "114822.587500", "114823.867500", "114825.147500", "114826.427500", "114827.707500", "114828.987500", "114830.267500", "114831.547500", "114832.827500", "114834.107500", "114835.387500", "114836.667500", "114837.947500", "114839.227500", "114840.507500", "114841.787500", "114843.067500", "114844.347500", "114845.627500", "114846.907500", "114848.187500", "114849.467500", "114850.747500", "114852.027500", "114853.307500", "114854.587500", "114855.867500", "114857.147500", "114858.427500", "114859.707500", "114900.987500", "114902.267500", "114903.547500", "114904.827500", "114906.107500", "114907.387500", "114908.667500", "114909.947500", "114911.227500", "114912.507500", "114913.787500", "114915.067500", "114916.347500", "114917.627500", "114918.907500", "114920.187500", "114921.467500", "114922.747500", "114924.027500", "114925.307500", "114926.587500", "114927.867500", "114929.147500", "114930.427500", "114931.707500", "114932.987500", "114934.267500", "114935.547500", "114936.827500", "114938.107500", "114939.387500", "114940.667500", "114941.947500", "114943.227500", "114944.507500", "114945.787500", "114947.067500", "114948.347500", "114949.627500", "114950.907500", "114952.187500", "114953.467500", "114954.747500", "114956.027500", "114957.307500", "114958.587500", "114959.867500", "115001.147500", "115002.427500", "115003.707500", "115004.987500", "115006.267500", "115007.547500", "115008.827500", "115010.107500", "115011.387500", "115012.667500", "115013.947500", "115015.227500", "115016.507500", "115017.787500", "115019.067500", "115020.347500", "115021.627500", "115022.907500", "115024.187500", "115025.467500", "115026.747500", "115028.027500", "115029.307500", "115030.587500", "115031.867500", "115033.147500", "115034.427500", "115035.707500", "115036.987500", "115038.267500", "115039.547500", "115040.827500", "115042.107500", "115043.387500", "115044.667500", "115045.947500", "115047.227500", "115048.507500", "115049.787500", "115051.067500", "115052.347500", "115053.627500", "115054.907500", "115056.187500", "115057.467500", "115058.747500", "115100.027500", "115101.307500", "115102.587500", "115103.867500", "115105.147500", "115106.427500", "115107.707500", "115108.987500", "115110.267500", "115111.547500", "115112.827500", "115114.107500", "115115.387500", "115116.667500", "115117.947500", "115119.227500", "115120.507500", "115121.787500", "115123.067500", "115124.347500", "115125.627500", "115126.907500", "115128.187500", "115129.467500", "115130.747500", "115132.027500", "115133.307500", "115134.587500", "115135.867500", "115137.147500", "115138.427500", "115139.707500", "115140.987500", "115142.267500", "115143.547500", "115144.827500", "115146.107500", "115147.387500", "115148.667500", "115149.947500", "115151.227500", "115152.507500", "115153.787500", "115155.067500", "115156.347500", "115157.627500", "115158.907500", "115200.187500", "115201.467500", "115202.747500", "115204.027500", "115205.307500", "115206.587500", "115207.867500", "115209.147500", "115210.427500", "115211.707500", "115212.987500", "115214.267500", "115215.547500", "115216.827500", "115218.107500", "115219.387500", "115220.667500", "115221.947500", "115223.227500", "115224.507500", "115225.787500", "115227.067500", "115228.347500", "115229.627500", "115230.907500", "115232.187500", "115233.467500", "115234.747500", "115236.027500", "115237.307500", "115238.587500", "115239.867500", "115241.147500", "115242.427500", "115243.707500", "115244.987500", "115246.267500", "115247.547500", "115248.827500", "115250.107500", "115251.387500", "115252.667500", "115253.947500", "115255.227500", "115256.507500", "115257.787500", "115259.067500", "115300.347500", "115301.627500", "115302.907500", "115304.187500", "115305.467500", "115306.747500", "115308.027500", "115309.307500", "115310.587500", "115311.867500", "115313.147500", "115314.427500", "115315.707500", "115316.987500", "115318.267500", "115319.547500", "115320.827500", "115322.107500", "115323.387500", "115324.667500", "115325.947500", "115327.227500", "115328.507500", "115329.787500", "115331.067500", "115332.347500", "115333.627500", "115334.907500", "115336.187500", "115337.467500", "115338.747500", "115340.027500", "115341.307500", "115342.587500", "115343.867500", "115345.147500", "115346.427500", "115347.707500", "115348.987500", "115350.267500", "115351.547500", "115352.827500", "115354.107500", "115355.387500", "115356.667500", "115357.947500", "115359.227500", "115400.507500", "115401.787500", "115403.067500", "115404.347500", "115405.627500", "115406.907500", "115408.187500", "115409.467500", "115410.747500", "115412.027500", "115413.307500", "115414.587500", "115415.867500", "115417.147500", "115418.427500", "115419.707500", "115420.987500", "115422.267500", "115423.547500", "115424.827500", "115426.107500", "115427.387500", "115428.667500", "115429.947500", "115431.227500", "115432.507500", "115433.787500", "115435.067500", "115436.347500", "115437.627500", "115438.907500", "115440.187500", "115441.467500", "115442.747500", "115444.027500", "115445.307500", "115446.587500", "115447.867500", "115449.147500", "115450.427500", "115451.707500", "115452.987500", "115454.267500", "115455.547500", "115456.827500", "115458.107500", "115459.387500", "115500.667500", "115501.947500", "115503.227500", "115504.507500", "115505.787500", "115507.067500", "115508.347500", "115509.627500", "115510.907500", "115512.187500", "115513.467500", "115514.747500", "115516.027500", "115517.307500", "115518.587500", "115519.867500", "115521.147500", "115522.427500", "115523.707500", "115524.987500", "115526.267500", "115527.547500", "115528.827500", "115530.107500", "115531.387500", "115532.667500", "115533.947500", "115535.227500", "115536.507500", "115537.787500", "115539.067500", "115540.347500", "115541.627500", "115542.907500", "115544.187500", "115545.467500", "115546.747500", "115548.027500", "115549.307500", "115550.587500", "115551.867500", "115553.147500", "115554.427500", "115555.707500", "115556.987500", "115558.267500", "115559.547500", "115600.827500", "115602.107500", "115603.387500", "115604.667500", "115605.947500", "115607.227500", "115608.507500", "115609.787500"],
      "ContentTime": ["114845.998000", "114846.002000", "114846.005000", "114846.008000", "114846.011000", "114846.014000", "114846.017000", "114846.020000", "114846.022000", "114846.025000", "114846.028000", "114846.031000", "114846.034000", "114846.037000", "114846.045000", "114846.049000", "114846.058000", "114846.061000", "114846.064000", "114846.066000", "114846.069000", "114846.072000", "114846.075000", "114846.078000", "114846.081000", "114925.993000", "114925.996000", "114926.001000", "114926.004000", "114926.007000", "114926.010000", "114926.020000", "114926.023000", "114926.026000", "114926.029000", "114926.032000", "114926.035000", "114926.038000", "114926.042000", "114926.045000", "114926.048000", "114926.051000", "114926.054000", "114926.057000", "114926.060000", "114926.063000", "114926.066000", "114926.069000", "114926.072000", "114926.075000", "114926.078000", "114926.081000", "114926.084000", "114926.087000", "114926.090000", "114926.093000", "114945.993000", "114945.996000", "114946.000000", "114946.003000", "114946.006000", "114946.009000", "114946.012000", "114946.015000", "114946.017000", "114946.020000", "114946.023000", "114946.026000", "114946.029000", "114946.032000", "114946.035000", "114946.038000", "115025.994000", "115025.997000", "115026.001000", "115026.004000", "115026.007000", "115026.010000", "115026.013000", "115026.016000", "115026.019000", "115026.022000", "115026.024000", "115026.027000", "115026.030000", "115026.033000", "115026.036000", "115026.039000", "115026.042000", "115026.045000", "115026.048000", "115026.055000", "115026.058000", "115026.061000", "115026.063000", "115026.066000", "115026.069000", "115026.072000", "115026.075000", "115026.078000", "115026.081000", "115026.084000", "115026.099000", "115105.993000", "115105.996000", "115106.000000", "115106.003000", "115106.006000", "115106.009000", "115106.011000", "115106.015000", "115106.017000", "115106.020000", "115106.023000", "115106.026000", "115106.029000", "115106.032000", "115106.035000", "115106.038000", "115106.041000", "115106.044000", "115106.046000", "115106.049000", "115106.052000", "115106.055000", "115106.058000", "115106.061000", "115106.064000", "115106.067000", "115106.070000", "115106.073000", "115106.076000", "115106.102000", "115106.105000", "115145.994000", "115145.997000", "115146.001000", "115146.004000", "115146.007000", "115146.010000", "115146.013000", "115146.016000", "115146.019000", "115146.022000", "115146.025000", "115146.028000", "115146.031000", "115146.033000", "115146.036000", "115146.039000", "115146.042000", "115146.045000", "115146.048000", "115146.051000", "115146.054000", "115146.057000", "115146.060000", "115146.063000", "115146.066000", "115146.068000", "115146.071000", "115146.074000", "115146.077000", "115146.080000", "115146.083000", "115146.086000", "115225.994000", "115225.997000", "115226.001000", "115226.004000", "115226.007000", "115226.010000", "115226.013000", "115226.016000", "115226.019000", "115226.022000", "115226.025000", "115226.028000", "115226.031000", "115226.033000", "115226.036000", "115226.039000", "115226.042000", "115226.045000", "115226.048000", "115226.051000", "115226.054000", "115226.057000", "115226.060000", "115226.063000", "115226.065000", "115226.068000", "115226.071000", "115226.074000", "115226.077000", "115226.080000", "115226.083000", "115305.994000", "115305.997000", "115306.001000", "115306.004000", "115306.007000", "115306.010000", "115306.013000", "115306.016000", "115306.019000", "115306.022000", "115306.024000", "115306.030000", "115306.033000", "115306.036000", "115306.039000", "115306.042000", "115306.045000", "115306.048000", "115306.051000", "115306.054000", "115306.057000", "115306.060000", "115306.062000", "115306.065000", "115306.068000", "115306.071000", "115306.074000", "115306.077000", "115306.080000", "115306.082000", "115306.085000", "115345.993000", "115345.996000", "115346.000000", "115346.003000", "115346.006000", "115346.008000", "115346.011000", "115346.014000", "115346.017000", "115346.020000", "115346.023000", "115346.026000", "115346.029000", "115346.032000", "115346.035000", "115346.038000", "115346.040000", "115346.043000", "115346.046000", "115346.049000", "115346.052000", "115346.055000", "115346.058000", "115346.061000", "115346.064000", "115346.070000", "115346.074000", "115346.077000", "115346.080000", "115346.083000", "115346.086000", "115425.993000", "115425.996000", "115426.000000", "115426.003000", "115426.006000", "115426.009000", "115426.011000", "115426.014000", "115426.017000", "115426.020000", "115426.023000", "115426.026000", "115426.029000", "115426.032000", "115426.035000", "115426.037000", "115426.040000", "115426.043000", "115426.046000", "115426.049000", "115426.052000", "115426.055000", "115426.058000", "115426.061000", "115426.064000", "115426.066000", "115426.069000", "115426.072000", "115426.075000", "115426.078000", "115426.081000", "115426.084000", "115505.994000", "115505.997000", "115506.017000", "115506.020000", "115506.023000", "115506.026000", "115506.029000", "115506.032000", "115506.035000", "115506.038000", "115506.041000", "115506.043000", "115506.046000", "115506.049000", "115506.052000", "115506.055000", "115506.058000", "115506.061000", "115506.063000", "115506.066000", "115506.069000", "115506.072000", "115506.075000", "115506.078000", "115506.081000", "115506.084000", "115506.086000", "115506.089000", "115506.092000", "115506.095000", "115506.098000", "115545.993000", "115545.996000", "115546.000000", "115546.003000", "115546.006000", "115546.009000", "115546.011000", "115546.014000", "115546.017000", "115546.020000", "115546.023000", "115546.026000", "115546.029000", "115546.032000", "115546.035000", "115546.037000", "115546.040000", "115546.043000", "115546.046000", "115546.049000", "115546.052000", "115546.055000", "115546.058000", "115546.061000", "115546.063000", "115546.066000", "115546.069000", "115546.072000", "115546.075000", "115546.078000", "115546.081000", "115610.711000", "115610.714000", "115610.718000", "115610.723000", "115610.727000", "115610.730000", "115610.734000", "115610.737000", "115610.741000", "115610.744000", "115610.750000", "115610.753000", "115610.756000", "115610.759000", "115610.762000", "115610.766000", "115610.769000", "115610.772000", "115610.775000", "115610.778000"],
      "InstanceCreationTime": ["114845.998000", "114846.002000", "114846.005000", "114846.008000", "114846.011000", "114846.014000", "114846.017000", "114846.020000", "114846.022000", "114846.025000", "114846.028000", "114846.031000", "114846.034000", "114846.037000", "114846.045000", "114846.049000", "114846.058000", "114846.061000", "114846.064000", "114846.066000", "114846.069000", "114846.072000", "114846.075000", "114846.078000", "114846.081000", "114925.993000", "114925.996000", "114926.001000", "114926.004000", "114926.007000", "114926.010000", "114926.020000", "114926.023000", "114926.026000", "114926.029000", "114926.032000", "114926.035000", "114926.038000", "114926.042000", "114926.045000", "114926.048000", "114926.051000", "114926.054000", "114926.057000", "114926.060000", "114926.063000", "114926.066000", "114926.069000", "114926.072000", "114926.075000", "114926.078000", "114926.081000", "114926.084000", "114926.087000", "114926.090000", "114926.093000", "114945.993000", "114945.996000", "114946.000000", "114946.003000", "114946.006000", "114946.009000", "114946.012000", "114946.015000", "114946.017000", "114946.020000", "114946.023000", "114946.026000", "114946.029000", "114946.032000", "114946.035000", "114946.038000", "115025.994000", "115025.997000", "115026.001000", "115026.004000", "115026.007000", "115026.010000", "115026.013000", "115026.016000", "115026.019000", "115026.022000", "115026.024000", "115026.027000", "115026.030000", "115026.033000", "115026.036000", "115026.039000", "115026.042000", "115026.045000", "115026.048000", "115026.055000", "115026.058000", "115026.061000", "115026.063000", "115026.066000", "115026.069000", "115026.072000", "115026.075000", "115026.078000", "115026.081000", "115026.084000", "115026.099000", "115105.993000", "115105.996000", "115106.000000", "115106.003000", "115106.006000", "115106.009000", "115106.011000", "115106.015000", "115106.017000", "115106.020000", "115106.023000", "115106.026000", "115106.029000", "115106.032000", "115106.035000", "115106.038000", "115106.041000", "115106.044000", "115106.046000", "115106.049000", "115106.052000", "115106.055000", "115106.058000", "115106.061000", "115106.064000", "115106.067000", "115106.070000", "115106.073000", "115106.076000", "115106.102000", "115106.105000", "115145.994000", "115145.997000", "115146.001000", "115146.004000", "115146.007000", "115146.010000", "115146.013000", "115146.016000", "115146.019000", "115146.022000", "115146.025000", "115146.028000", "115146.031000", "115146.033000", "115146.036000", "115146.039000", "115146.042000", "115146.045000", "115146.048000", "115146.051000", "115146.054000", "115146.057000", "115146.060000", "115146.063000", "115146.066000", "115146.068000", "115146.071000", "115146.074000", "115146.077000", "115146.080000", "115146.083000", "115146.086000", "115225.994000", "115225.997000", "115226.001000", "115226.004000", "115226.007000", "115226.010000", "115226.013000", "115226.016000", "115226.019000", "115226.022000", "115226.025000", "115226.028000", "115226.031000", "115226.033000", "115226.036000", "115226.039000", "115226.042000", "115226.045000", "115226.048000", "115226.051000", "115226.054000", "115226.057000", "115226.060000", "115226.063000", "115226.065000", "115226.068000", "115226.071000", "115226.074000", "115226.077000", "115226.080000", "115226.083000", "115305.994000", "115305.997000", "115306.001000", "115306.004000", "115306.007000", "115306.010000", "115306.013000", "115306.016000", "115306.019000", "115306.022000", "115306.024000", "115306.030000", "115306.033000", "115306.036000", "115306.039000", "115306.042000", "115306.045000", "115306.048000", "115306.051000", "115306.054000", "115306.057000", "115306.060000", "115306.062000", "115306.065000", "115306.068000", "115306.071000", "115306.074000", "115306.077000", "115306.080000", "115306.082000", "115306.085000", "115345.993000", "115345.996000", "115346.000000", "115346.003000", "115346.006000", "115346.008000", "115346.011000", "115346.014000", "115346.017000", "115346.020000", "115346.023000", "115346.026000", "115346.029000", "115346.032000", "115346.035000", "115346.038000", "115346.040000", "115346.043000", "115346.046000", "115346.049000", "115346.052000", "115346.055000", "115346.058000", "115346.061000", "115346.064000", "115346.070000", "115346.074000", "115346.077000", "115346.080000", "115346.083000", "115346.086000", "115425.993000", "115425.996000", "115426.000000", "115426.003000", "115426.006000", "115426.009000", "115426.011000", "115426.014000", "115426.017000", "115426.020000", "115426.023000", "115426.026000", "115426.029000", "115426.032000", "115426.035000", "115426.037000", "115426.040000", "115426.043000", "115426.046000", "115426.049000", "115426.052000", "115426.055000", "115426.058000", "115426.061000", "115426.064000", "115426.066000", "115426.069000", "115426.072000", "115426.075000", "115426.078000", "115426.081000", "115426.084000", "115505.994000", "115505.997000", "115506.017000", "115506.020000", "115506.023000", "115506.026000", "115506.029000", "115506.032000", "115506.035000", "115506.038000", "115506.041000", "115506.043000", "115506.046000", "115506.049000", "115506.052000", "115506.055000", "115506.058000", "115506.061000", "115506.063000", "115506.066000", "115506.069000", "115506.072000", "115506.075000", "115506.078000", "115506.081000", "115506.084000", "115506.086000", "115506.089000", "115506.092000", "115506.095000", "115506.098000", "115545.993000", "115545.996000", "115546.000000", "115546.003000", "115546.006000", "115546.009000", "115546.011000", "115546.014000", "115546.017000", "115546.020000", "115546.023000", "115546.026000", "115546.029000", "115546.032000", "115546.035000", "115546.037000", "115546.040000", "115546.043000", "115546.046000", "115546.049000", "115546.052000", "115546.055000", "115546.058000", "115546.061000", "115546.063000", "115546.066000", "115546.069000", "115546.072000", "115546.075000", "115546.078000", "115546.081000", "115610.711000", "115610.714000", "115610.718000", "115610.723000", "115610.727000", "115610.730000", "115610.734000", "115610.737000", "115610.741000", "115610.744000", "115610.750000", "115610.753000", "115610.756000", "115610.759000", "115610.762000", "115610.766000", "115610.769000", "115610.772000", "115610.775000", "115610.778000"],
      "InstanceNumber": [1, 2, 3, 4, 5, 6, 7, 8, 9, 10, 11, 12, 13, 14, 15, 16, 17, 18, 19, 20, 21, 22, 23, 24, 25, 26, 27, 28, 29, 30, 31, 32, 33, 34, 35, 36, 37, 38, 39, 40, 41, 42, 43, 44, 45, 46, 47, 48, 49, 50, 51, 52, 53, 54, 55, 56, 57, 58, 59, 60, 61, 62, 63, 64, 65, 66, 67, 68, 69, 70, 71, 72, 73, 74, 75, 76, 77, 78, 79, 80, 81, 82, 83, 84, 85, 86, 87, 88, 89, 90, 91, 92, 93, 94, 95, 96, 97, 98, 99, 100, 101, 102, 103, 104, 105, 106, 107, 108, 109, 110, 111, 112, 113, 114, 115, 116, 117, 118, 119, 120, 121, 122, 123, 124, 125, 126, 127, 128, 129, 130, 131, 132, 133, 134, 135, 136, 137, 138, 139, 140, 141, 142, 143, 144, 145, 146, 147, 148, 149, 150, 151, 152, 153, 154, 155, 156, 157, 158, 159, 160, 161, 162, 163, 164, 165, 166, 167, 168, 169, 170, 171, 172, 173, 174, 175, 176, 177, 178, 179, 180, 181, 182, 183, 184, 185, 186, 187, 188, 189, 190, 191, 192, 193, 194, 195, 196, 197, 198, 199, 200, 201, 202, 203, 204, 205, 206, 207, 208, 209, 210, 211, 212, 213, 214, 215, 216, 217, 218, 219, 220, 221, 222, 223, 224, 225, 226, 227, 228, 229, 230, 231, 232, 233, 234, 235, 236, 237, 238, 239, 240, 241, 242, 243, 244, 245, 246, 247, 248, 249, 250, 251, 252, 253, 254, 255, 256, 257, 258, 259, 260, 261, 262, 263, 264, 265, 266, 267, 268, 269, 270, 271, 272, 273, 274, 275, 276, 277, 278, 279, 280, 281, 282, 283, 284, 285, 286, 287, 288, 289, 290, 291, 292, 293, 294, 295, 296, 297, 298, 299, 300, 301, 302, 303, 304, 305, 306, 307, 308, 309, 310, 311, 312, 313, 314, 315, 316, 317, 318, 319, 320, 321, 322, 323, 324, 325, 326, 327, 328, 329, 330, 331, 332, 333, 334, 335, 336, 337, 338, 339, 340, 341, 342, 343, 344, 345, 346, 347, 348, 349, 350, 351, 352, 353, 354, 355, 356, 357, 358, 359, 360, 361, 362, 363, 364, 365, 366, 367, 368, 369, 370, 371, 372, 373],
