{
  "AcquisitionMatrixPE": 108,
  "AcquisitionNumber": 1,
  "AcquisitionTime": "12:19:9.490000",
  "BandwidthPerPixelPhaseEncode": 15.964,
  "BaseResolution": 108,
  "BodyPartExamined": "BRAIN",
  "ConsistencyInfo": "N4_VE11C_LATEST_20160120",
  "ConversionSoftware": "dcm2niix",
  "ConversionSoftwareVersion": "v1.0.20180622 GCC6.3.0",
  "DerivedVendorReportedEchoSpacing": 0.000580009,
  "DeviceSerialNumber": "66054",
  "DwellTime": 2.1e-06,
  "EchoTime": 0.031,
  "EchoTrainLength": 95,
  "EffectiveEchoSpacing": 0.000580009,
  "FlipAngle": 64,
  "ImageOrientationPatientDICOM": [0.99926, 0.0378062, -0.00706787, -0.0366412, 0.879903, -0.473738],
  "ImageType": [
    "ORIGINAL",
    "PRIMARY",
    "M",
    "ND",
    "MOSAIC"
],
  "InPlanePhaseEncodingDirectionDICOM": "COL",
  "InstitutionAddress": "Chemin_des_Mines_9_Geneve_District_CH_1211",
  "InstitutionName": "Fondation_Campus_Biotech_Geneva",
  "InstitutionalDepartmentName": "Department",
  "MRAcquisitionType": "2D",
  "MagneticFieldStrength": 3,
  "Manufacturer": "Siemens",
  "ManufacturersModelName": "Prisma",
  "Modality": "MR",
  "MultibandAccelerationFactor": 4,
  "PartialFourier": 0.875,
  "PatientPosition": "HFS",
  "PercentPhaseFOV": 100,
  "PhaseEncodingDirection": "j-",
  "PhaseEncodingSteps": 95,
  "PhaseResolution": 1,
  "PixelBandwidth": 2205,
  "ProcedureStepDescription": "J.DRM_Michael",
  "ProtocolName": "Run6_bold_s4_TR1.28",
  "PulseSequenceDetails": "%SiemensSeq%_ep2d_bold",
  "ReceiveCoilActiveElements": "HC1-7;NC1,2",
  "ReceiveCoilName": "HeadNeck_64",
  "ReconMatrixPE": 108,
  "RepetitionTime": 1.28,
  "SAR": 0.0846619,
  "ScanOptions": "PFP_FS",
  "ScanningSequence": "EP",
  "SequenceName": "_epfid2d1_108",
  "SequenceVariant": "SK",
  "SeriesDescription": "Run6_bold_s4_TR1.28",
  "SeriesNumber": 17,
  "ShimSetting": [-1273, -11660, 6460, 542, 33, -154, -30, 87],
  "SliceThickness": 2,
  "SliceTiming": [0.945, 0, 0.63, 0.08, 0.71, 0.1575, 0.7875, 0.2375, 0.8675, 0.395, 1.025, 0.4725, 1.1025, 0.5525, 1.1825, 0.315, 0.945, 0, 0.63, 0.08, 0.71, 0.1575, 0.7875, 0.2375, 0.8675, 0.395, 1.025, 0.4725, 1.1025, 0.5525, 1.1825, 0.315, 0.945, 0, 0.63, 0.08, 0.71, 0.1575, 0.7875, 0.2375, 0.8675, 0.395, 1.025, 0.4725, 1.1025, 0.5525, 1.1825, 0.315, 0.945, 0, 0.63, 0.08, 0.71, 0.1575, 0.7875, 0.2375, 0.8675, 0.395, 1.025, 0.4725, 1.1025, 0.5525, 1.1825, 0.315],
  "SoftwareVersions": "syngo_MR_E11",
  "SpacingBetweenSlices": 2,
  "StationName": "AWP66054",
  "TaskName": "main",
  "TotalReadoutTime": 0.0620609,
  "TxRefAmp": 297.377,
  "dcmmeta_affine": [
    [-1.9892678260803223, -0.07294318825006485, 0.023382361978292465, 113.90023803710938],
    [-0.07526233792304993, 1.7516595125198364, -0.9472925662994385, -53.67198944091797],
    [-0.014070301316678524, 0.9430891871452332, 1.7612751722335815, -104.31133270263672],
    [0.0, 0.0, 0.0, 1.0]
],
  "dcmmeta_reorient_transform": [
    [0.0, -1.0, 0.0, 107.0],
    [1.0, 0.0, 0.0, 0.0],
    [0.0, 0.0, 1.0, 0.0],
    [0.0, 0.0, 0.0, 1.0]
],
  "dcmmeta_shape": [108, 108, 64, 373],
  "dcmmeta_slice_dim": 2,
  "dcmmeta_version": 0.6,
  "global": {
    "const": {
      "AccessionNumber": "",
      "AcquisitionMatrix": [108, 0, 0, 108],
      "AngioFlag": "N",
      "BitsAllocated": 16,
      "BitsStored": 12,
      "BodyPartExamined": "BRAIN",
      "Columns": 864,
      "EchoNumbers": 1,
      "EchoTime": 31.0,
      "EchoTrainLength": 95,
      "FlipAngle": 64.0,
      "HighBit": 11,
      "ImageOrientationPatient": [0.99926009453501, 0.03780619856652, -0.0070678723694, -0.0366412302155, 0.87990335019998, -0.4737378120386],
      "ImagePositionPatient": [-830.46602589264, -824.33202113886, 358.40549358365],
      "ImageType": [
        "ORIGINAL",
        "PRIMARY",
        "M",
        "ND",
        "MOSAIC"
],
      "ImagedNucleus": "1H",
      "ImagingFrequency": 123.257408,
      "InPlanePhaseEncodingDirection": "COL",
      "MRAcquisitionType": "2D",
      "MagneticFieldStrength": 3.0,
      "Manufacturer": "SIEMENS",
      "ManufacturerModelName": "Prisma",
      "Modality": "MR",
      "NumberOfAverages": 1.0,
      "NumberOfPhaseEncodingSteps": 95,
      "PercentPhaseFieldOfView": 100.0,
      "PercentSampling": 100.0,
      "PerformedProcedureStepStartTime": "110443.608000",
      "PhotometricInterpretation": "MONOCHROME2",
      "PixelBandwidth": 2205.0,
      "PixelRepresentation": 0,
      "PixelSpacing": [1.990740776062, 1.990740776062],
      "PositionReferenceIndicator": "",
      "ProtocolName": "Run6_bold_s4_TR1.28",
      "RepetitionTime": 1280.0,
      "Rows": 864,
      "SAR": 0.08466188163534,
      "SamplesPerPixel": 1,
      "ScanOptions": [
        "PFP",
        "FS"
],
      "ScanningSequence": "EP",
      "SequenceName": "*epfid2d1_108",
      "SequenceVariant": "SK",
      "SeriesDescription": "Run6_bold_s4_TR1.28",
      "SeriesNumber": 17,
      "SeriesTime": "121943.949000",
      "SliceLocation": -65.107312136928,
      "SliceThickness": 2.0,
      "SmallestImagePixelValue": 0,
      "SoftwareVersions": "syngo MR E11",
      "SpacingBetweenSlices": 2.0000000300754,
      "SpecificCharacterSet": "ISO_IR 100",
      "StudyID": "1",
      "StudyTime": "110443.533000",
      "TransmitCoilName": "Body",
      "VariableFlipAngleFlag": "N",
      "WindowCenterWidthExplanation": "Algo1",
      "dBdt": 0.0},
    "slices": {}
  },
  "time": {
    "samples": {
      "AcquisitionNumber": [1, 2, 3, 4, 5, 6, 7, 8, 9, 10, 11, 12, 13, 14, 15, 16, 17, 18, 19, 20, 21, 22, 23, 24, 25, 26, 27, 28, 29, 30, 31, 32, 33, 34, 35, 36, 37, 38, 39, 40, 41, 42, 43, 44, 45, 46, 47, 48, 49, 50, 51, 52, 53, 54, 55, 56, 57, 58, 59, 60, 61, 62, 63, 64, 65, 66, 67, 68, 69, 70, 71, 72, 73, 74, 75, 76, 77, 78, 79, 80, 81, 82, 83, 84, 85, 86, 87, 88, 89, 90, 91, 92, 93, 94, 95, 96, 97, 98, 99, 100, 101, 102, 103, 104, 105, 106, 107, 108, 109, 110, 111, 112, 113, 114, 115, 116, 117, 118, 119, 120, 121, 122, 123, 124, 125, 126, 127, 128, 129, 130, 131, 132, 133, 134, 135, 136, 137, 138, 139, 140, 141, 142, 143, 144, 145, 146, 147, 148, 149, 150, 151, 152, 153, 154, 155, 156, 157, 158, 159, 160, 161, 162, 163, 164, 165, 166, 167, 168, 169, 170, 171, 172, 173, 174, 175, 176, 177, 178, 179, 180, 181, 182, 183, 184, 185, 186, 187, 188, 189, 190, 191, 192, 193, 194, 195, 196, 197, 198, 199, 200, 201, 202, 203, 204, 205, 206, 207, 208, 209, 210, 211, 212, 213, 214, 215, 216, 217, 218, 219, 220, 221, 222, 223, 224, 225, 226, 227, 228, 229, 230, 231, 232, 233, 234, 235, 236, 237, 238, 239, 240, 241, 242, 243, 244, 245, 246, 247, 248, 249, 250, 251, 252, 253, 254, 255, 256, 257, 258, 259, 260, 261, 262, 263, 264, 265, 266, 267, 268, 269, 270, 271, 272, 273, 274, 275, 276, 277, 278, 279, 280, 281, 282, 283, 284, 285, 286, 287, 288, 289, 290, 291, 292, 293, 294, 295, 296, 297, 298, 299, 300, 301, 302, 303, 304, 305, 306, 307, 308, 309, 310, 311, 312, 313, 314, 315, 316, 317, 318, 319, 320, 321, 322, 323, 324, 325, 326, 327, 328, 329, 330, 331, 332, 333, 334, 335, 336, 337, 338, 339, 340, 341, 342, 343, 344, 345, 346, 347, 348, 349, 350, 351, 352, 353, 354, 355, 356, 357, 358, 359, 360, 361, 362, 363, 364, 365, 366, 367, 368, 369, 370, 371, 372, 373],
      "AcquisitionTime": ["121909.490000", "121910.770000", "121912.050000", "121913.330000", "121914.610000", "121915.890000", "121917.170000", "121918.450000", "121919.730000", "121921.010000", "121922.290000", "121923.570000", "121924.850000", "121926.130000", "121927.410000", "121928.690000", "121929.970000", "121931.250000", "121932.530000", "121933.810000", "121935.090000", "121936.370000", "121937.650000", "121938.930000", "121940.210000", "121941.490000", "121942.770000", "121944.050000", "121945.330000", "121946.610000", "121947.890000", "121949.170000", "121950.450000", "121951.730000", "121953.010000", "121954.290000", "121955.570000", "121956.850000", "121958.130000", "121959.410000", "122000.690000", "122001.970000", "122003.250000", "122004.530000", "122005.810000", "122007.090000", "122008.370000", "122009.650000", "122010.930000", "122012.210000", "122013.490000", "122014.770000", "122016.050000", "122017.330000", "122018.610000", "122019.890000", "122021.170000", "122022.450000", "122023.730000", "122025.010000", "122026.290000", "122027.570000", "122028.850000", "122030.130000", "122031.410000", "122032.690000", "122033.970000", "122035.250000", "122036.530000", "122037.810000", "122039.090000", "122040.370000", "122041.650000", "122042.930000", "122044.210000", "122045.490000", "122046.770000", "122048.050000", "122049.330000", "122050.610000", "122051.890000", "122053.170000", "122054.450000", "122055.730000", "122057.010000", "122058.290000", "122059.570000", "122100.850000", "122102.130000", "122103.410000", "122104.690000", "122105.970000", "122107.250000", "122108.530000", "122109.810000", "122111.090000", "122112.370000", "122113.650000", "122114.930000", "122116.210000", "122117.490000", "122118.770000", "122120.050000", "122121.330000", "122122.610000", "122123.890000", "122125.170000", "122126.450000", "122127.730000", "122129.010000", "122130.290000", "122131.570000", "122132.850000", "122134.130000", "122135.410000", "122136.690000", "122137.970000", "122139.250000", "122140.530000", "122141.810000", "122143.090000", "122144.370000", "122145.650000", "122146.930000", "122148.210000", "122149.490000", "122150.770000", "122152.050000", "122153.330000", "122154.610000", "122155.890000", "122157.170000", "122158.450000", "122159.730000", "122201.010000", "122202.290000", "122203.570000", "122204.850000", "122206.130000", "122207.410000", "122208.690000", "122209.970000", "122211.250000", "122212.530000", "122213.810000", "122215.090000", "122216.370000", "122217.650000", "122218.930000", "122220.210000", "122221.490000", "122222.770000", "122224.050000", "122225.330000", "122226.610000", "122227.890000", "122229.170000", "122230.450000", "122231.730000", "122233.010000", "122234.290000", "122235.570000", "122236.850000", "122238.130000", "122239.410000", "122240.690000", "122241.970000", "122243.250000", "122244.530000", "122245.810000", "122247.090000", "122248.370000", "122249.650000", "122250.930000", "122252.210000", "122253.490000", "122254.770000", "122256.050000", "122257.330000", "122258.610000", "122259.890000", "122301.170000", "122302.450000", "122303.730000", "122305.010000", "122306.290000", "122307.570000", "122308.850000", "122310.130000", "122311.410000", "122312.690000", "122313.970000", "122315.250000", "122316.530000", "122317.810000", "122319.090000", "122320.370000", "122321.650000", "122322.930000", "122324.210000", "122325.490000", "122326.770000", "122328.050000", "122329.330000", "122330.610000", "122331.890000", "122333.170000", "122334.450000", "122335.730000", "122337.010000", "122338.290000", "122339.570000", "122340.850000", "122342.130000", "122343.410000", "122344.690000", "122345.970000", "122347.250000", "122348.530000", "122349.810000", "122351.090000", "122352.370000", "122353.650000", "122354.930000", "122356.210000", "122357.490000", "122358.770000", "122400.050000", "122401.330000", "122402.610000", "122403.890000", "122405.170000", "122406.450000", "122407.730000", "122409.010000", "122410.290000", "122411.570000", "122412.850000", "122414.130000", "122415.410000", "122416.690000", "122417.970000", "122419.250000", "122420.530000", "122421.810000", "122423.090000", "122424.370000", "122425.650000", "122426.930000", "122428.210000", "122429.490000", "122430.770000", "122432.050000", "122433.330000", "122434.610000", "122435.890000", "122437.170000", "122438.450000", "122439.730000", "122441.010000", "122442.290000", "122443.570000", "122444.850000", "122446.130000", "122447.410000", "122448.690000", "122449.970000", "122451.250000", "122452.530000", "122453.810000", "122455.090000", "122456.370000", "122457.650000", "122458.930000", "122500.210000", "122501.490000", "122502.770000", "122504.050000", "122505.330000", "122506.610000", "122507.890000", "122509.170000", "122510.450000", "122511.730000", "122513.010000", "122514.290000", "122515.570000", "122516.850000", "122518.130000", "122519.410000", "122520.690000", "122521.970000", "122523.250000", "122524.530000", "122525.810000", "122527.090000", "122528.370000", "122529.650000", "122530.930000", "122532.210000", "122533.490000", "122534.770000", "122536.050000", "122537.330000", "122538.610000", "122539.890000", "122541.170000", "122542.450000", "122543.730000", "122545.010000", "122546.290000", "122547.570000", "122548.850000", "122550.130000", "122551.410000", "122552.690000", "122553.970000", "122555.250000", "122556.530000", "122557.810000", "122559.090000", "122600.370000", "122601.650000", "122602.930000", "122604.210000", "122605.490000", "122606.770000", "122608.050000", "122609.330000", "122610.610000", "122611.890000", "122613.170000", "122614.450000", "122615.730000", "122617.010000", "122618.290000", "122619.570000", "122620.850000", "122622.130000", "122623.410000", "122624.690000", "122625.970000", "122627.250000", "122628.530000", "122629.810000", "122631.090000", "122632.370000", "122633.650000", "122634.930000", "122636.210000", "122637.490000", "122638.770000", "122640.050000", "122641.330000", "122642.610000", "122643.890000", "122645.170000", "122646.450000", "122647.730000", "122649.010000", "122650.290000", "122651.570000", "122652.850000", "122654.130000", "122655.410000", "122656.690000", "122657.970000", "122659.250000", "122700.530000", "122701.810000", "122703.090000", "122704.370000", "122705.650000"],
      "ContentTime": ["121943.952000", "121943.956000", "121943.959000", "121943.962000", "121943.972000", "121943.975000", "121943.984000", "121943.987000", "121943.990000", "121943.993000", "121943.996000", "121944.000000", "121944.003000", "121944.005000", "121944.009000", "121944.011000", "121944.014000", "121944.017000", "121944.020000", "121944.023000", "121944.026000", "121944.029000", "121944.032000", "121944.035000", "121944.037000", "121944.040000", "122023.949000", "122023.952000", "122023.955000", "122023.958000", "122023.961000", "122023.964000", "122023.967000", "122023.970000", "122023.972000", "122023.975000", "122023.981000", "122023.984000", "122023.987000", "122023.990000", "122023.992000", "122023.995000", "122023.998000", "122024.001000", "122024.004000", "122024.007000", "122024.016000", "122024.019000", "122024.022000", "122024.024000", "122024.027000", "122024.030000", "122024.033000", "122024.036000", "122024.039000", "122024.042000", "122024.045000", "122024.048000", "122103.949000", "122103.952000", "122103.955000", "122103.958000", "122103.961000", "122103.964000", "122103.967000", "122103.969000", "122103.972000", "122103.975000", "122103.978000", "122103.981000", "122103.984000", "122103.987000", "122103.990000", "122103.992000", "122103.995000", "122103.998000", "122104.002000", "122104.005000", "122104.008000", "122104.011000", "122104.014000", "122104.017000", "122104.020000", "122104.023000", "122104.025000", "122104.028000", "122104.031000", "122104.034000", "122104.037000", "122143.949000", "122143.952000", "122143.955000", "122143.958000", "122143.961000", "122143.964000", "122143.967000", "122143.969000", "122143.972000", "122143.975000", "122143.978000", "122143.981000", "122143.984000", "122143.987000", "122143.990000", "122143.992000", "122143.995000", "122143.998000", "122144.002000", "122144.005000", "122144.008000", "122144.011000", "122144.014000", "122144.017000", "122144.020000", "122144.023000", "122144.025000", "122144.028000", "122144.032000", "122144.035000", "122144.038000", "122223.948000", "122223.951000", "122223.954000", "122223.957000", "122223.960000", "122223.963000", "122223.966000", "122223.969000", "122223.972000", "122223.974000", "122223.977000", "122223.980000", "122223.983000", "122223.986000", "122223.989000", "122223.992000", "122223.995000", "122223.998000", "122224.001000", "122224.004000", "122224.022000", "122224.025000", "122224.028000", "122224.031000", "122224.033000", "122224.036000", "122224.039000", "122224.042000", "122224.045000", "122224.048000", "122224.051000", "122303.949000", "122303.952000", "122303.955000", "122303.958000", "122303.961000", "122303.964000", "122303.967000", "122303.969000", "122303.972000", "122303.975000", "122303.978000", "122303.981000", "122303.984000", "122303.987000", "122303.990000", "122303.993000", "122303.996000", "122303.998000", "122304.002000", "122304.005000", "122304.008000", "122304.011000", "122304.014000", "122304.017000", "122304.020000", "122304.023000", "122304.025000", "122304.028000", "122304.031000", "122304.034000", "122304.037000", "122304.040000", "122343.949000", "122343.952000", "122343.955000", "122343.958000", "122343.961000", "122343.964000", "122343.967000", "122343.969000", "122343.972000", "122343.975000", "122343.978000", "122343.981000", "122343.984000", "122343.987000", "122343.990000", "122343.993000", "122343.996000", "122344.000000", "122344.003000", "122344.005000", "122344.008000", "122344.011000", "122344.014000", "122344.017000", "122344.020000", "122344.023000", "122344.026000", "122344.029000", "122344.032000", "122344.035000", "122344.038000", "122423.948000", "122423.951000", "122423.954000", "122423.957000", "122423.960000", "122423.963000", "122423.966000", "122423.969000", "122423.972000", "122423.975000", "122423.977000", "122423.980000", "122423.983000", "122423.986000", "122423.989000", "122423.992000", "122423.995000", "122423.998000", "122424.002000", "122424.005000", "122424.008000", "122424.011000", "122424.014000", "122424.017000", "122424.019000", "122424.022000", "122424.025000", "122424.029000", "122424.032000", "122424.035000", "122424.038000", "122503.949000", "122503.952000", "122503.955000", "122503.958000", "122503.961000", "122503.964000", "122503.967000", "122503.969000", "122503.973000", "122503.975000", "122503.978000", "122503.981000", "122503.984000", "122503.987000", "122503.990000", "122503.993000", "122503.996000", "122504.000000", "122504.003000", "122504.005000", "122504.008000", "122504.011000", "122504.014000", "122504.017000", "122504.020000", "122504.023000", "122504.026000", "122504.029000", "122504.032000", "122504.035000", "122504.038000", "122543.949000", "122543.957000", "122543.960000", "122543.963000", "122543.966000", "122543.969000", "122543.972000", "122543.975000", "122543.979000", "122543.982000", "122543.985000", "122543.987000", "122543.990000", "122543.993000", "122543.996000", "122544.000000", "122544.003000", "122544.006000", "122544.009000", "122544.012000", "122544.015000", "122544.018000", "122544.021000", "122544.023000", "122544.026000", "122544.029000", "122544.032000", "122544.035000", "122544.038000", "122544.041000", "122544.044000", "122544.047000", "122623.949000", "122623.952000", "122623.955000", "122623.958000", "122623.961000", "122623.964000", "122623.967000", "122623.970000", "122623.973000", "122623.975000", "122623.978000", "122623.981000", "122623.984000", "122623.987000", "122623.990000", "122623.993000", "122623.996000", "122624.000000", "122624.003000", "122624.006000", "122624.008000", "122624.011000", "122624.014000", "122624.017000", "122624.034000", "122624.037000", "122624.040000", "122624.043000", "122624.046000", "122624.049000", "122624.052000", "122703.948000", "122703.951000", "122703.954000", "122703.957000", "122703.960000", "122703.963000", "122703.966000", "122703.969000", "122703.972000", "122703.975000", "122703.978000", "122703.980000", "122703.983000", "122703.986000", "122703.989000", "122703.992000", "122703.995000", "122703.998000", "122704.002000", "122704.005000", "122704.008000", "122704.011000", "122704.014000", "122704.016000", "122704.019000", "122704.022000", "122704.027000", "122704.030000", "122704.032000", "122704.035000", "122704.038000", "122707.088000", "122707.091000", "122707.094000"],
      "InstanceCreationTime": ["121943.952000", "121943.956000", "121943.959000", "121943.962000", "121943.972000", "121943.975000", "121943.984000", "121943.987000", "121943.990000", "121943.993000", "121943.996000", "121944.000000", "121944.003000", "121944.005000", "121944.009000", "121944.011000", "121944.014000", "121944.017000", "121944.020000", "121944.023000", "121944.026000", "121944.029000", "121944.032000", "121944.035000", "121944.037000", "121944.040000", "122023.949000", "122023.952000", "122023.955000", "122023.958000", "122023.961000", "122023.964000", "122023.967000", "122023.970000", "122023.972000", "122023.975000", "122023.981000", "122023.984000", "122023.987000", "122023.990000", "122023.992000", "122023.995000", "122023.998000", "122024.001000", "122024.004000", "122024.007000", "122024.016000", "122024.019000", "122024.022000", "122024.024000", "122024.027000", "122024.030000", "122024.033000", "122024.036000", "122024.039000", "122024.042000", "122024.045000", "122024.048000", "122103.949000", "122103.952000", "122103.955000", "122103.958000", "122103.961000", "122103.964000", "122103.967000", "122103.969000", "122103.972000", "122103.975000", "122103.978000", "122103.981000", "122103.984000", "122103.987000", "122103.990000", "122103.992000", "122103.995000", "122103.998000", "122104.002000", "122104.005000", "122104.008000", "122104.011000", "122104.014000", "122104.017000", "122104.020000", "122104.023000", "122104.025000", "122104.028000", "122104.031000", "122104.034000", "122104.037000", "122143.949000", "122143.952000", "122143.955000", "122143.958000", "122143.961000", "122143.964000", "122143.967000", "122143.969000", "122143.972000", "122143.975000", "122143.978000", "122143.981000", "122143.984000", "122143.987000", "122143.990000", "122143.992000", "122143.995000", "122143.998000", "122144.002000", "122144.005000", "122144.008000", "122144.011000", "122144.014000", "122144.017000", "122144.020000", "122144.023000", "122144.025000", "122144.028000", "122144.032000", "122144.035000", "122144.038000", "122223.948000", "122223.951000", "122223.954000", "122223.957000", "122223.960000", "122223.963000", "122223.966000", "122223.969000", "122223.972000", "122223.974000", "122223.977000", "122223.980000", "122223.983000", "122223.986000", "122223.989000", "122223.992000", "122223.995000", "122223.998000", "122224.001000", "122224.004000", "122224.022000", "122224.025000", "122224.028000", "122224.031000", "122224.033000", "122224.036000", "122224.039000", "122224.042000", "122224.045000", "122224.048000", "122224.051000", "122303.949000", "122303.952000", "122303.955000", "122303.958000", "122303.961000", "122303.964000", "122303.967000", "122303.969000", "122303.972000", "122303.975000", "122303.978000", "122303.981000", "122303.984000", "122303.987000", "122303.990000", "122303.993000", "122303.996000", "122303.998000", "122304.002000", "122304.005000", "122304.008000", "122304.011000", "122304.014000", "122304.017000", "122304.020000", "122304.023000", "122304.025000", "122304.028000", "122304.031000", "122304.034000", "122304.037000", "122304.040000", "122343.949000", "122343.952000", "122343.955000", "122343.958000", "122343.961000", "122343.964000", "122343.967000", "122343.969000", "122343.972000", "122343.975000", "122343.978000", "122343.981000", "122343.984000", "122343.987000", "122343.990000", "122343.993000", "122343.996000", "122344.000000", "122344.003000", "122344.005000", "122344.008000", "122344.011000", "122344.014000", "122344.017000", "122344.020000", "122344.023000", "122344.026000", "122344.029000", "122344.032000", "122344.035000", "122344.038000", "122423.948000", "122423.951000", "122423.954000", "122423.957000", "122423.960000", "122423.963000", "122423.966000", "122423.969000", "122423.972000", "122423.975000", "122423.977000", "122423.980000", "122423.983000", "122423.986000", "122423.989000", "122423.992000", "122423.995000", "122423.998000", "122424.002000", "122424.005000", "122424.008000", "122424.011000", "122424.014000", "122424.017000", "122424.019000", "122424.022000", "122424.025000", "122424.029000", "122424.032000", "122424.035000", "122424.038000", "122503.949000", "122503.952000", "122503.955000", "122503.958000", "122503.961000", "122503.964000", "122503.967000", "122503.969000", "122503.973000", "122503.975000", "122503.978000", "122503.981000", "122503.984000", "122503.987000", "122503.990000", "122503.993000", "122503.996000", "122504.000000", "122504.003000", "122504.005000", "122504.008000", "122504.011000", "122504.014000", "122504.017000", "122504.020000", "122504.023000", "122504.026000", "122504.029000", "122504.032000", "122504.035000", "122504.038000", "122543.949000", "122543.957000", "122543.960000", "122543.963000", "122543.966000", "122543.969000", "122543.972000", "122543.975000", "122543.979000", "122543.982000", "122543.985000", "122543.987000", "122543.990000", "122543.993000", "122543.996000", "122544.000000", "122544.003000", "122544.006000", "122544.009000", "122544.012000", "122544.015000", "122544.018000", "122544.021000", "122544.023000", "122544.026000", "122544.029000", "122544.032000", "122544.035000", "122544.038000", "122544.041000", "122544.044000", "122544.047000", "122623.949000", "122623.952000", "122623.955000", "122623.958000", "122623.961000", "122623.964000", "122623.967000", "122623.970000", "122623.973000", "122623.975000", "122623.978000", "122623.981000", "122623.984000", "122623.987000", "122623.990000", "122623.993000", "122623.996000", "122624.000000", "122624.003000", "122624.006000", "122624.008000", "122624.011000", "122624.014000", "122624.017000", "122624.034000", "122624.037000", "122624.040000", "122624.043000", "122624.046000", "122624.049000", "122624.052000", "122703.948000", "122703.951000", "122703.954000", "122703.957000", "122703.960000", "122703.963000", "122703.966000", "122703.969000", "122703.972000", "122703.975000", "122703.978000", "122703.980000", "122703.983000", "122703.986000", "122703.989000", "122703.992000", "122703.995000", "122703.998000", "122704.002000", "122704.005000", "122704.008000", "122704.011000", "122704.014000", "122704.016000", "122704.019000", "122704.022000", "122704.027000", "122704.030000", "122704.032000", "122704.035000", "122704.038000", "122707.088000", "122707.091000", "122707.094000"],
      "InstanceNumber": [1, 2, 3, 4, 5, 6, 7, 8, 9, 10, 11, 12, 13, 14, 15, 16, 17, 18, 19, 20, 21, 22, 23, 24, 25, 26, 27, 28, 29, 30, 31, 32, 33, 34, 35, 36, 37, 38, 39, 40, 41, 42, 43, 44, 45, 46, 47, 48, 49, 50, 51, 52, 53, 54, 55, 56, 57, 58, 59, 60, 61, 62, 63, 64, 65, 66, 67, 68, 69, 70, 71, 72, 73, 74, 75, 76, 77, 78, 79, 80, 81, 82, 83, 84, 85, 86, 87, 88, 89, 90, 91, 92, 93, 94, 95, 96, 97, 98, 99, 100, 101, 102, 103, 104, 105, 106, 107, 108, 109, 110, 111, 112, 113, 114, 115, 116, 117, 118, 119, 120, 121, 122, 123, 124, 125, 126, 127, 128, 129, 130, 131, 132, 133, 134, 135, 136, 137, 138, 139, 140, 141, 142, 143, 144, 145, 146, 147, 148, 149, 150, 151, 152, 153, 154, 155, 156, 157, 158, 159, 160, 161, 162, 163, 164, 165, 166, 167, 168, 169, 170, 171, 172, 173, 174, 175, 176, 177, 178, 179, 180, 181, 182, 183, 184, 185, 186, 187, 188, 189, 190, 191, 192, 193, 194, 195, 196, 197, 198, 199, 200, 201, 202, 203, 204, 205, 206, 207, 208, 209, 210, 211, 212, 213, 214, 215, 216, 217, 218, 219, 220, 221, 222, 223, 224, 225, 226, 227, 228, 229, 230, 231, 232, 233, 234, 235, 236, 237, 238, 239, 240, 241, 242, 243, 244, 245, 246, 247, 248, 249, 250, 251, 252, 253, 254, 255, 256, 257, 258, 259, 260, 261, 262, 263, 264, 265, 266, 267, 268, 269, 270, 271, 272, 273, 274, 275, 276, 277, 278, 279, 280, 281, 282, 283, 284, 285, 286, 287, 288, 289, 290, 291, 292, 293, 294, 295, 296, 297, 298, 299, 300, 301, 302, 303, 304, 305, 306, 307, 308, 309, 310, 311, 312, 313, 314, 315, 316, 317, 318, 319, 320, 321, 322, 323, 324, 325, 326, 327, 328, 329, 330, 331, 332, 333, 334, 335, 336, 337, 338, 339, 340, 341, 342, 343, 344, 345, 346, 347, 348, 349, 350, 351, 352, 353, 354, 355, 356, 357, 358, 359, 360, 361, 362, 363, 364, 365, 366, 367, 368, 369, 370, 371, 372, 373],
