{
  "AcquisitionMatrixPE": 108,
  "AcquisitionNumber": 1,
  "AcquisitionTime": "15:32:38.340000",
  "BandwidthPerPixelPhaseEncode": 15.964,
  "BaseResolution": 108,
  "BodyPartExamined": "BRAIN",
  "ConsistencyInfo": "N4_VE11C_LATEST_20160120",
  "ConversionSoftware": "dcm2niix",
  "ConversionSoftwareVersion": "v1.0.20180622 GCC6.3.0",
  "DerivedVendorReportedEchoSpacing": 0.000580009,
  "DeviceSerialNumber": "66054",
  "DwellTime": 2.1e-06,
  "EchoTime": 0.031,
  "EchoTrainLength": 95,
  "EffectiveEchoSpacing": 0.000580009,
  "FlipAngle": 64,
  "ImageOrientationPatientDICOM": [0.997857, -0.0217788, 0.0617081, 0.0488033, 0.875882, -0.480051],
  "ImageType": [
    "ORIGINAL",
    "PRIMARY",
    "M",
    "ND",
    "MOSAIC"
],
  "InPlanePhaseEncodingDirectionDICOM": "COL",
  "InstitutionAddress": "Chemin_des_Mines_9_Geneve_District_CH_1211",
  "InstitutionName": "Fondation_Campus_Biotech_Geneva",
  "InstitutionalDepartmentName": "Department",
  "MRAcquisitionType": "2D",
  "MagneticFieldStrength": 3,
  "Manufacturer": "Siemens",
  "ManufacturersModelName": "Prisma",
  "Modality": "MR",
  "MultibandAccelerationFactor": 4,
  "PartialFourier": 0.875,
  "PatientPosition": "HFS",
  "PercentPhaseFOV": 100,
  "PhaseEncodingDirection": "j-",
  "PhaseEncodingSteps": 95,
  "PhaseResolution": 1,
  "PixelBandwidth": 2205,
  "ProcedureStepDescription": "J.DRM_Michael",
  "ProtocolName": "Run5_bold_s4_TR1.28",
  "PulseSequenceDetails": "%SiemensSeq%_ep2d_bold",
  "ReceiveCoilActiveElements": "HC1-7;NC1,2",
  "ReceiveCoilName": "HeadNeck_64",
  "ReconMatrixPE": 108,
  "RepetitionTime": 1.28,
  "SAR": 0.0663655,
  "ScanOptions": "PFP_FS",
  "ScanningSequence": "EP",
  "SequenceName": "_epfid2d1_108",
  "SequenceVariant": "SK",
  "SeriesDescription": "Run5_bold_s4_TR1.28",
  "SeriesNumber": 11,
  "ShimSetting": [-1234, -11634, 6407, 624, 172, -7, -102, 27],
  "SliceThickness": 2,
  "SliceTiming": [0.945, 0, 0.63, 0.08, 0.7075, 0.1575, 0.7875, 0.2375, 0.865, 0.3925, 1.0225, 0.4725, 1.1025, 0.55, 1.18, 0.315, 0.945, 0, 0.63, 0.08, 0.7075, 0.1575, 0.7875, 0.2375, 0.865, 0.3925, 1.0225, 0.4725, 1.1025, 0.55, 1.18, 0.315, 0.945, 0, 0.63, 0.08, 0.7075, 0.1575, 0.7875, 0.2375, 0.865, 0.3925, 1.0225, 0.4725, 1.1025, 0.55, 1.18, 0.315, 0.945, 0, 0.63, 0.08, 0.7075, 0.1575, 0.7875, 0.2375, 0.865, 0.3925, 1.0225, 0.4725, 1.1025, 0.55, 1.18, 0.315],
  "SoftwareVersions": "syngo_MR_E11",
  "SpacingBetweenSlices": 2,
  "StationName": "AWP66054",
  "TaskName": "main",
  "TotalReadoutTime": 0.0620609,
  "TxRefAmp": 237.501,
  "dcmmeta_affine": [
    [-1.986473798751831, 0.09715474396944046, 0.08718815445899963, 100.07919311523438],
    [0.04335590451955795, 1.7436535358428955, -0.9640681147575378, -63.57759475708008],
    [0.12284485995769501, 0.955657958984375, 1.7501345872879028, -100.52230834960938],
    [0.0, 0.0, 0.0, 1.0]
],
  "dcmmeta_reorient_transform": [
    [0.0, -1.0, 0.0, 107.0],
    [1.0, 0.0, 0.0, 0.0],
    [0.0, 0.0, 1.0, 0.0],
    [0.0, 0.0, 0.0, 1.0]
],
  "dcmmeta_shape": [108, 108, 64, 373],
  "dcmmeta_slice_dim": 2,
  "dcmmeta_version": 0.6,
  "global": {
    "const": {
      "AccessionNumber": "",
      "AcquisitionMatrix": [108, 0, 0, 108],
      "AngioFlag": "N",
      "BitsAllocated": 16,
      "BitsStored": 12,
      "BodyPartExamined": "BRAIN",
      "Columns": 864,
      "EchoNumbers": 1,
      "EchoTime": 31.0,
      "EchoTrainLength": 95,
      "FlipAngle": 64.0,
      "HighBit": 11,
      "ImageOrientationPatient": [0.99785659946054, -0.0217787803631, 0.06170811647538, 0.04880331147428, 0.87588175833218, -0.4800514370461],
      "ImagePositionPatient": [-898.08634803521, -765.70583353122, 316.53644676665],
      "ImageType": [
        "ORIGINAL",
        "PRIMARY",
        "M",
        "ND",
        "MOSAIC"
],
      "ImagedNucleus": "1H",
      "ImagingFrequency": 123.25748,
      "InPlanePhaseEncodingDirection": "COL",
      "MRAcquisitionType": "2D",
      "MagneticFieldStrength": 3.0,
      "Manufacturer": "SIEMENS",
      "ManufacturerModelName": "Prisma",
      "Modality": "MR",
      "NumberOfAverages": 1.0,
      "NumberOfPhaseEncodingSteps": 95,
      "PercentPhaseFieldOfView": 100.0,
      "PercentSampling": 100.0,
      "PerformedProcedureStepStartTime": "133648.082000",
      "PhotometricInterpretation": "MONOCHROME2",
      "PixelBandwidth": 2205.0,
      "PixelRepresentation": 0,
      "PixelSpacing": [1.990740776062, 1.990740776062],
      "PositionReferenceIndicator": "",
      "ProtocolName": "Run5_bold_s4_TR1.28",
      "RepetitionTime": 1280.0,
      "Rows": 864,
      "SAR": 0.06636550516334,
      "SamplesPerPixel": 1,
      "ScanOptions": [
        "PFP",
        "FS"
],
      "ScanningSequence": "EP",
      "SequenceName": "*epfid2d1_108",
      "SequenceVariant": "SK",
      "SeriesDescription": "Run5_bold_s4_TR1.28",
      "SeriesNumber": 11,
      "SeriesTime": "153317.776000",
      "SliceLocation": -52.954356696759,
      "SliceThickness": 2.0,
      "SmallestImagePixelValue": 0,
      "SoftwareVersions": "syngo MR E11",
      "SpacingBetweenSlices": 2.0000000113189,
      "SpecificCharacterSet": "ISO_IR 100",
      "StudyID": "1",
      "StudyTime": "133647.980000",
      "TransmitCoilName": "Body",
      "VariableFlipAngleFlag": "N",
      "WindowCenterWidthExplanation": "Algo1",
      "dBdt": 0.0},
    "slices": {}
  },
  "time": {
    "samples": {
      "AcquisitionNumber": [1, 2, 3, 4, 5, 6, 7, 8, 9, 10, 11, 12, 13, 14, 15, 16, 17, 18, 19, 20, 21, 22, 23, 24, 25, 26, 27, 28, 29, 30, 31, 32, 33, 34, 35, 36, 37, 38, 39, 40, 41, 42, 43, 44, 45, 46, 47, 48, 49, 50, 51, 52, 53, 54, 55, 56, 57, 58, 59, 60, 61, 62, 63, 64, 65, 66, 67, 68, 69, 70, 71, 72, 73, 74, 75, 76, 77, 78, 79, 80, 81, 82, 83, 84, 85, 86, 87, 88, 89, 90, 91, 92, 93, 94, 95, 96, 97, 98, 99, 100, 101, 102, 103, 104, 105, 106, 107, 108, 109, 110, 111, 112, 113, 114, 115, 116, 117, 118, 119, 120, 121, 122, 123, 124, 125, 126, 127, 128, 129, 130, 131, 132, 133, 134, 135, 136, 137, 138, 139, 140, 141, 142, 143, 144, 145, 146, 147, 148, 149, 150, 151, 152, 153, 154, 155, 156, 157, 158, 159, 160, 161, 162, 163, 164, 165, 166, 167, 168, 169, 170, 171, 172, 173, 174, 175, 176, 177, 178, 179, 180, 181, 182, 183, 184, 185, 186, 187, 188, 189, 190, 191, 192, 193, 194, 195, 196, 197, 198, 199, 200, 201, 202, 203, 204, 205, 206, 207, 208, 209, 210, 211, 212, 213, 214, 215, 216, 217, 218, 219, 220, 221, 222, 223, 224, 225, 226, 227, 228, 229, 230, 231, 232, 233, 234, 235, 236, 237, 238, 239, 240, 241, 242, 243, 244, 245, 246, 247, 248, 249, 250, 251, 252, 253, 254, 255, 256, 257, 258, 259, 260, 261, 262, 263, 264, 265, 266, 267, 268, 269, 270, 271, 272, 273, 274, 275, 276, 277, 278, 279, 280, 281, 282, 283, 284, 285, 286, 287, 288, 289, 290, 291, 292, 293, 294, 295, 296, 297, 298, 299, 300, 301, 302, 303, 304, 305, 306, 307, 308, 309, 310, 311, 312, 313, 314, 315, 316, 317, 318, 319, 320, 321, 322, 323, 324, 325, 326, 327, 328, 329, 330, 331, 332, 333, 334, 335, 336, 337, 338, 339, 340, 341, 342, 343, 344, 345, 346, 347, 348, 349, 350, 351, 352, 353, 354, 355, 356, 357, 358, 359, 360, 361, 362, 363, 364, 365, 366, 367, 368, 369, 370, 371, 372, 373],
      "AcquisitionTime": ["153238.340000", "153239.620000", "153240.900000", "153242.180000", "153243.460000", "153244.740000", "153246.020000", "153247.300000", "153248.580000", "153249.860000", "153251.140000", "153252.420000", "153253.700000", "153254.980000", "153256.260000", "153257.540000", "153258.820000", "153300.100000", "153301.380000", "153302.660000", "153303.940000", "153305.220000", "153306.500000", "153307.780000", "153309.060000", "153310.340000", "153311.620000", "153312.900000", "153314.180000", "153315.460000", "153316.740000", "153318.020000", "153319.300000", "153320.580000", "153321.860000", "153323.140000", "153324.420000", "153325.700000", "153326.980000", "153328.260000", "153329.540000", "153330.820000", "153332.100000", "153333.380000", "153334.660000", "153335.940000", "153337.220000", "153338.500000", "153339.780000", "153341.060000", "153342.340000", "153343.620000", "153344.900000", "153346.180000", "153347.460000", "153348.740000", "153350.020000", "153351.300000", "153352.580000", "153353.860000", "153355.140000", "153356.420000", "153357.700000", "153358.980000", "153400.260000", "153401.540000", "153402.820000", "153404.100000", "153405.380000", "153406.660000", "153407.940000", "153409.220000", "153410.500000", "153411.780000", "153413.060000", "153414.340000", "153415.620000", "153416.900000", "153418.180000", "153419.460000", "153420.740000", "153422.020000", "153423.300000", "153424.580000", "153425.860000", "153427.140000", "153428.420000", "153429.700000", "153430.980000", "153432.260000", "153433.540000", "153434.820000", "153436.100000", "153437.380000", "153438.660000", "153439.940000", "153441.220000", "153442.500000", "153443.780000", "153445.060000", "153446.340000", "153447.620000", "153448.900000", "153450.180000", "153451.460000", "153452.740000", "153454.020000", "153455.300000", "153456.580000", "153457.860000", "153459.140000", "153500.420000", "153501.700000", "153502.980000", "153504.260000", "153505.540000", "153506.820000", "153508.100000", "153509.380000", "153510.660000", "153511.940000", "153513.220000", "153514.500000", "153515.780000", "153517.060000", "153518.340000", "153519.620000", "153520.900000", "153522.180000", "153523.460000", "153524.740000", "153526.020000", "153527.300000", "153528.580000", "153529.860000", "153531.140000", "153532.420000", "153533.700000", "153534.980000", "153536.260000", "153537.540000", "153538.820000", "153540.100000", "153541.380000", "153542.660000", "153543.940000", "153545.220000", "153546.500000", "153547.780000", "153549.060000", "153550.340000", "153551.620000", "153552.900000", "153554.180000", "153555.460000", "153556.740000", "153558.020000", "153559.300000", "153600.580000", "153601.860000", "153603.140000", "153604.420000", "153605.700000", "153606.980000", "153608.260000", "153609.540000", "153610.820000", "153612.100000", "153613.380000", "153614.660000", "153615.940000", "153617.220000", "153618.500000", "153619.780000", "153621.060000", "153622.340000", "153623.620000", "153624.900000", "153626.180000", "153627.460000", "153628.740000", "153630.020000", "153631.300000", "153632.580000", "153633.860000", "153635.140000", "153636.420000", "153637.700000", "153638.980000", "153640.260000", "153641.540000", "153642.820000", "153644.100000", "153645.380000", "153646.660000", "153647.940000", "153649.220000", "153650.500000", "153651.780000", "153653.060000", "153654.340000", "153655.620000", "153656.900000", "153658.180000", "153659.460000", "153700.740000", "153702.020000", "153703.300000", "153704.580000", "153705.860000", "153707.140000", "153708.420000", "153709.700000", "153710.980000", "153712.260000", "153713.540000", "153714.820000", "153716.100000", "153717.380000", "153718.660000", "153719.940000", "153721.220000", "153722.500000", "153723.780000", "153725.060000", "153726.340000", "153727.620000", "153728.900000", "153730.180000", "153731.460000", "153732.740000", "153734.020000", "153735.300000", "153736.580000", "153737.860000", "153739.140000", "153740.420000", "153741.700000", "153742.980000", "153744.260000", "153745.540000", "153746.820000", "153748.100000", "153749.380000", "153750.660000", "153751.940000", "153753.220000", "153754.500000", "153755.780000", "153757.060000", "153758.340000", "153759.620000", "153800.900000", "153802.180000", "153803.460000", "153804.740000", "153806.020000", "153807.300000", "153808.580000", "153809.860000", "153811.140000", "153812.420000", "153813.700000", "153814.980000", "153816.260000", "153817.540000", "153818.820000", "153820.100000", "153821.380000", "153822.660000", "153823.940000", "153825.220000", "153826.500000", "153827.780000", "153829.060000", "153830.340000", "153831.620000", "153832.900000", "153834.180000", "153835.460000", "153836.740000", "153838.020000", "153839.300000", "153840.580000", "153841.860000", "153843.140000", "153844.420000", "153845.700000", "153846.980000", "153848.260000", "153849.540000", "153850.820000", "153852.100000", "153853.380000", "153854.660000", "153855.940000", "153857.220000", "153858.500000", "153859.780000", "153901.060000", "153902.340000", "153903.620000", "153904.900000", "153906.180000", "153907.460000", "153908.740000", "153910.020000", "153911.300000", "153912.580000", "153913.860000", "153915.140000", "153916.420000", "153917.700000", "153918.980000", "153920.260000", "153921.540000", "153922.820000", "153924.100000", "153925.380000", "153926.660000", "153927.940000", "153929.220000", "153930.500000", "153931.780000", "153933.060000", "153934.340000", "153935.620000", "153936.900000", "153938.180000", "153939.460000", "153940.740000", "153942.020000", "153943.300000", "153944.580000", "153945.860000", "153947.140000", "153948.420000", "153949.700000", "153950.980000", "153952.260000", "153953.540000", "153954.820000", "153956.100000", "153957.380000", "153958.660000", "153959.940000", "154001.220000", "154002.500000", "154003.780000", "154005.060000", "154006.340000", "154007.620000", "154008.900000", "154010.180000", "154011.460000", "154012.740000", "154014.020000", "154015.300000", "154016.580000", "154017.860000", "154019.140000", "154020.420000", "154021.700000", "154022.980000", "154024.260000", "154025.540000", "154026.820000", "154028.100000", "154029.380000", "154030.660000", "154031.940000", "154033.220000", "154034.500000"],
      "ContentTime": ["153317.780000", "153317.784000", "153317.787000", "153317.790000", "153317.792000", "153317.799000", "153317.802000", "153317.805000", "153317.808000", "153317.811000", "153317.814000", "153317.824000", "153317.827000", "153317.831000", "153317.834000", "153317.837000", "153317.840000", "153317.843000", "153317.846000", "153317.849000", "153317.852000", "153317.855000", "153317.859000", "153317.861000", "153317.864000", "153317.868000", "153317.870000", "153317.873000", "153317.876000", "153317.879000", "153317.882000", "153357.776000", "153357.779000", "153357.782000", "153357.785000", "153357.788000", "153357.791000", "153357.793000", "153357.811000", "153357.814000", "153357.817000", "153357.820000", "153357.823000", "153357.825000", "153357.828000", "153357.831000", "153357.834000", "153357.837000", "153357.840000", "153357.843000", "153357.846000", "153357.849000", "153357.852000", "153357.855000", "153357.858000", "153357.861000", "153357.863000", "153357.866000", "153357.869000", "153357.872000", "153357.875000", "153357.878000", "153437.775000", "153437.778000", "153437.781000", "153437.784000", "153437.787000", "153437.790000", "153437.793000", "153437.795000", "153437.798000", "153437.801000", "153437.804000", "153437.807000", "153437.810000", "153437.813000", "153437.816000", "153437.819000", "153437.822000", "153437.825000", "153437.828000", "153437.830000", "153437.833000", "153437.836000", "153437.839000", "153437.842000", "153437.845000", "153437.848000", "153437.851000", "153437.853000", "153437.856000", "153437.859000", "153437.862000", "153517.775000", "153517.778000", "153517.781000", "153517.784000", "153517.787000", "153517.790000", "153517.793000", "153517.795000", "153517.798000", "153517.801000", "153517.804000", "153517.807000", "153517.810000", "153517.813000", "153517.816000", "153517.818000", "153517.821000", "153517.824000", "153517.827000", "153517.830000", "153517.833000", "153517.836000", "153517.839000", "153517.842000", "153517.844000", "153517.847000", "153517.850000", "153517.853000", "153517.856000", "153517.859000", "153517.862000", "153557.775000", "153557.778000", "153557.781000", "153557.784000", "153557.787000", "153557.790000", "153557.793000", "153557.796000", "153557.799000", "153557.801000", "153557.804000", "153557.807000", "153557.810000", "153557.813000", "153557.816000", "153557.819000", "153557.822000", "153557.824000", "153557.827000", "153557.830000", "153557.833000", "153557.836000", "153557.839000", "153557.842000", "153557.844000", "153557.847000", "153557.850000", "153557.853000", "153557.856000", "153557.859000", "153557.862000", "153557.865000", "153637.776000", "153637.779000", "153637.782000", "153637.785000", "153637.788000", "153637.790000", "153637.793000", "153637.796000", "153637.799000", "153637.802000", "153637.805000", "153637.808000", "153637.810000", "153637.813000", "153637.816000", "153637.819000", "153637.822000", "153637.825000", "153637.828000", "153637.831000", "153637.834000", "153637.837000", "153637.840000", "153637.843000", "153637.846000", "153637.849000", "153637.852000", "153637.854000", "153637.857000", "153637.860000", "153637.863000", "153717.775000", "153717.778000", "153717.781000", "153717.784000", "153717.787000", "153717.790000", "153717.793000", "153717.796000", "153717.799000", "153717.802000", "153717.805000", "153717.808000", "153717.811000", "153717.814000", "153717.817000", "153717.820000", "153717.822000", "153717.825000", "153717.828000", "153717.831000", "153717.834000", "153717.837000", "153717.840000", "153717.843000", "153717.846000", "153717.848000", "153717.851000", "153717.854000", "153717.857000", "153717.860000", "153717.863000", "153757.775000", "153757.778000", "153757.781000", "153757.784000", "153757.787000", "153757.790000", "153757.799000", "153757.802000", "153757.805000", "153757.808000", "153757.811000", "153757.813000", "153757.829000", "153757.832000", "153757.839000", "153757.842000", "153757.845000", "153757.848000", "153757.851000", "153757.853000", "153757.856000", "153757.859000", "153757.862000", "153757.865000", "153757.868000", "153757.871000", "153757.874000", "153757.876000", "153757.879000", "153757.882000", "153757.885000", "153837.776000", "153837.779000", "153837.782000", "153837.785000", "153837.788000", "153837.791000", "153837.794000", "153837.797000", "153837.799000", "153837.802000", "153837.805000", "153837.808000", "153837.811000", "153837.814000", "153837.817000", "153837.820000", "153837.823000", "153837.825000", "153837.828000", "153837.831000", "153837.834000", "153837.837000", "153837.840000", "153837.843000", "153837.846000", "153837.849000", "153837.851000", "153837.854000", "153837.857000", "153837.860000", "153837.863000", "153837.866000", "153917.775000", "153917.778000", "153917.781000", "153917.784000", "153917.787000", "153917.790000", "153917.793000", "153917.796000", "153917.798000", "153917.801000", "153917.804000", "153917.807000", "153917.810000", "153917.813000", "153917.816000", "153917.819000", "153917.822000", "153917.824000", "153917.827000", "153917.830000", "153917.833000", "153917.836000", "153917.839000", "153917.842000", "153917.845000", "153917.848000", "153917.851000", "153917.854000", "153917.857000", "153917.860000", "153917.863000", "153957.775000", "153957.778000", "153957.781000", "153957.784000", "153957.787000", "153957.790000", "153957.792000", "153957.796000", "153957.799000", "153957.802000", "153957.804000", "153957.807000", "153957.810000", "153957.813000", "153957.816000", "153957.819000", "153957.822000", "153957.825000", "153957.828000", "153957.830000", "153957.833000", "153957.836000", "153957.839000", "153957.842000", "153957.845000", "153957.848000", "153957.851000", "153957.853000", "153957.856000", "153957.859000", "153957.862000", "154035.370000", "154035.373000", "154035.377000", "154035.380000", "154035.384000", "154035.387000", "154035.390000", "154035.393000", "154035.396000", "154035.400000", "154035.403000", "154035.406000", "154035.409000", "154035.412000", "154035.415000", "154035.418000", "154035.421000", "154035.424000", "154035.427000", "154035.430000", "154035.433000", "154035.436000", "154035.439000", "154035.442000", "154035.444000", "154035.448000", "154035.451000", "154035.454000", "154035.457000", "154035.460000"],
      "InstanceCreationTime": ["153317.780000", "153317.784000", "153317.787000", "153317.790000", "153317.792000", "153317.799000", "153317.802000", "153317.805000", "153317.808000", "153317.811000", "153317.814000", "153317.824000", "153317.827000", "153317.831000", "153317.834000", "153317.837000", "153317.840000", "153317.843000", "153317.846000", "153317.849000", "153317.852000", "153317.855000", "153317.859000", "153317.861000", "153317.864000", "153317.868000", "153317.870000", "153317.873000", "153317.876000", "153317.879000", "153317.882000", "153357.776000", "153357.779000", "153357.782000", "153357.785000", "153357.788000", "153357.791000", "153357.793000", "153357.811000", "153357.814000", "153357.817000", "153357.820000", "153357.823000", "153357.825000", "153357.828000", "153357.831000", "153357.834000", "153357.837000", "153357.840000", "153357.843000", "153357.846000", "153357.849000", "153357.852000", "153357.855000", "153357.858000", "153357.861000", "153357.863000", "153357.866000", "153357.869000", "153357.872000", "153357.875000", "153357.878000", "153437.775000", "153437.778000", "153437.781000", "153437.784000", "153437.787000", "153437.790000", "153437.793000", "153437.795000", "153437.798000", "153437.801000", "153437.804000", "153437.807000", "153437.810000", "153437.813000", "153437.816000", "153437.819000", "153437.822000", "153437.825000", "153437.828000", "153437.830000", "153437.833000", "153437.836000", "153437.839000", "153437.842000", "153437.845000", "153437.848000", "153437.851000", "153437.853000", "153437.856000", "153437.859000", "153437.862000", "153517.775000", "153517.778000", "153517.781000", "153517.784000", "153517.787000", "153517.790000", "153517.793000", "153517.795000", "153517.798000", "153517.801000", "153517.804000", "153517.807000", "153517.810000", "153517.813000", "153517.816000", "153517.818000", "153517.821000", "153517.824000", "153517.827000", "153517.830000", "153517.833000", "153517.836000", "153517.839000", "153517.842000", "153517.844000", "153517.847000", "153517.850000", "153517.853000", "153517.856000", "153517.859000", "153517.862000", "153557.775000", "153557.778000", "153557.781000", "153557.784000", "153557.787000", "153557.790000", "153557.793000", "153557.796000", "153557.799000", "153557.801000", "153557.804000", "153557.807000", "153557.810000", "153557.813000", "153557.816000", "153557.819000", "153557.822000", "153557.824000", "153557.827000", "153557.830000", "153557.833000", "153557.836000", "153557.839000", "153557.842000", "153557.844000", "153557.847000", "153557.850000", "153557.853000", "153557.856000", "153557.859000", "153557.862000", "153557.865000", "153637.776000", "153637.779000", "153637.782000", "153637.785000", "153637.788000", "153637.790000", "153637.793000", "153637.796000", "153637.799000", "153637.802000", "153637.805000", "153637.808000", "153637.810000", "153637.813000", "153637.816000", "153637.819000", "153637.822000", "153637.825000", "153637.828000", "153637.831000", "153637.834000", "153637.837000", "153637.840000", "153637.843000", "153637.846000", "153637.849000", "153637.852000", "153637.854000", "153637.857000", "153637.860000", "153637.863000", "153717.775000", "153717.778000", "153717.781000", "153717.784000", "153717.787000", "153717.790000", "153717.793000", "153717.796000", "153717.799000", "153717.802000", "153717.805000", "153717.808000", "153717.811000", "153717.814000", "153717.817000", "153717.820000", "153717.822000", "153717.825000", "153717.828000", "153717.831000", "153717.834000", "153717.837000", "153717.840000", "153717.843000", "153717.846000", "153717.848000", "153717.851000", "153717.854000", "153717.857000", "153717.860000", "153717.863000", "153757.775000", "153757.778000", "153757.781000", "153757.784000", "153757.787000", "153757.790000", "153757.799000", "153757.802000", "153757.805000", "153757.808000", "153757.811000", "153757.813000", "153757.829000", "153757.832000", "153757.839000", "153757.842000", "153757.845000", "153757.848000", "153757.851000", "153757.853000", "153757.856000", "153757.859000", "153757.862000", "153757.865000", "153757.868000", "153757.871000", "153757.874000", "153757.876000", "153757.879000", "153757.882000", "153757.885000", "153837.776000", "153837.779000", "153837.782000", "153837.785000", "153837.788000", "153837.791000", "153837.794000", "153837.797000", "153837.799000", "153837.802000", "153837.805000", "153837.808000", "153837.811000", "153837.814000", "153837.817000", "153837.820000", "153837.823000", "153837.825000", "153837.828000", "153837.831000", "153837.834000", "153837.837000", "153837.840000", "153837.843000", "153837.846000", "153837.849000", "153837.851000", "153837.854000", "153837.857000", "153837.860000", "153837.863000", "153837.866000", "153917.775000", "153917.778000", "153917.781000", "153917.784000", "153917.787000", "153917.790000", "153917.793000", "153917.796000", "153917.798000", "153917.801000", "153917.804000", "153917.807000", "153917.810000", "153917.813000", "153917.816000", "153917.819000", "153917.822000", "153917.824000", "153917.827000", "153917.830000", "153917.833000", "153917.836000", "153917.839000", "153917.842000", "153917.845000", "153917.848000", "153917.851000", "153917.854000", "153917.857000", "153917.860000", "153917.863000", "153957.775000", "153957.778000", "153957.781000", "153957.784000", "153957.787000", "153957.790000", "153957.792000", "153957.796000", "153957.799000", "153957.802000", "153957.804000", "153957.807000", "153957.810000", "153957.813000", "153957.816000", "153957.819000", "153957.822000", "153957.825000", "153957.828000", "153957.830000", "153957.833000", "153957.836000", "153957.839000", "153957.842000", "153957.845000", "153957.848000", "153957.851000", "153957.853000", "153957.856000", "153957.859000", "153957.862000", "154035.370000", "154035.373000", "154035.377000", "154035.380000", "154035.384000", "154035.387000", "154035.390000", "154035.393000", "154035.396000", "154035.400000", "154035.403000", "154035.406000", "154035.409000", "154035.412000", "154035.415000", "154035.418000", "154035.421000", "154035.424000", "154035.427000", "154035.430000", "154035.433000", "154035.436000", "154035.439000", "154035.442000", "154035.444000", "154035.448000", "154035.451000", "154035.454000", "154035.457000", "154035.460000"],
      "InstanceNumber": [1, 2, 3, 4, 5, 6, 7, 8, 9, 10, 11, 12, 13, 14, 15, 16, 17, 18, 19, 20, 21, 22, 23, 24, 25, 26, 27, 28, 29, 30, 31, 32, 33, 34, 35, 36, 37, 38, 39, 40, 41, 42, 43, 44, 45, 46, 47, 48, 49, 50, 51, 52, 53, 54, 55, 56, 57, 58, 59, 60, 61, 62, 63, 64, 65, 66, 67, 68, 69, 70, 71, 72, 73, 74, 75, 76, 77, 78, 79, 80, 81, 82, 83, 84, 85, 86, 87, 88, 89, 90, 91, 92, 93, 94, 95, 96, 97, 98, 99, 100, 101, 102, 103, 104, 105, 106, 107, 108, 109, 110, 111, 112, 113, 114, 115, 116, 117, 118, 119, 120, 121, 122, 123, 124, 125, 126, 127, 128, 129, 130, 131, 132, 133, 134, 135, 136, 137, 138, 139, 140, 141, 142, 143, 144, 145, 146, 147, 148, 149, 150, 151, 152, 153, 154, 155, 156, 157, 158, 159, 160, 161, 162, 163, 164, 165, 166, 167, 168, 169, 170, 171, 172, 173, 174, 175, 176, 177, 178, 179, 180, 181, 182, 183, 184, 185, 186, 187, 188, 189, 190, 191, 192, 193, 194, 195, 196, 197, 198, 199, 200, 201, 202, 203, 204, 205, 206, 207, 208, 209, 210, 211, 212, 213, 214, 215, 216, 217, 218, 219, 220, 221, 222, 223, 224, 225, 226, 227, 228, 229, 230, 231, 232, 233, 234, 235, 236, 237, 238, 239, 240, 241, 242, 243, 244, 245, 246, 247, 248, 249, 250, 251, 252, 253, 254, 255, 256, 257, 258, 259, 260, 261, 262, 263, 264, 265, 266, 267, 268, 269, 270, 271, 272, 273, 274, 275, 276, 277, 278, 279, 280, 281, 282, 283, 284, 285, 286, 287, 288, 289, 290, 291, 292, 293, 294, 295, 296, 297, 298, 299, 300, 301, 302, 303, 304, 305, 306, 307, 308, 309, 310, 311, 312, 313, 314, 315, 316, 317, 318, 319, 320, 321, 322, 323, 324, 325, 326, 327, 328, 329, 330, 331, 332, 333, 334, 335, 336, 337, 338, 339, 340, 341, 342, 343, 344, 345, 346, 347, 348, 349, 350, 351, 352, 353, 354, 355, 356, 357, 358, 359, 360, 361, 362, 363, 364, 365, 366, 367, 368, 369, 370, 371, 372, 373],
