{
  "AcquisitionMatrixPE": 108,
  "AcquisitionNumber": 1,
  "AcquisitionTime": "15:49:51.017500",
  "BandwidthPerPixelPhaseEncode": 15.964,
  "BaseResolution": 108,
  "BodyPartExamined": "BRAIN",
  "ConsistencyInfo": "N4_VE11C_LATEST_20160120",
  "ConversionSoftware": "dcm2niix",
  "ConversionSoftwareVersion": "v1.0.20180622 GCC6.3.0",
  "DerivedVendorReportedEchoSpacing": 0.000580009,
  "DeviceSerialNumber": "66054",
  "DwellTime": 2.1e-06,
  "EchoTime": 0.031,
  "EchoTrainLength": 95,
  "EffectiveEchoSpacing": 0.000580009,
  "FlipAngle": 64,
  "ImageOrientationPatientDICOM": [0.997857, -0.0217788, 0.0617081, 0.0488033, 0.875882, -0.480051],
  "ImageType": [
    "ORIGINAL",
    "PRIMARY",
    "M",
    "ND",
    "MOSAIC"
],
  "InPlanePhaseEncodingDirectionDICOM": "COL",
  "InstitutionAddress": "Chemin_des_Mines_9_Geneve_District_CH_1211",
  "InstitutionName": "Fondation_Campus_Biotech_Geneva",
  "InstitutionalDepartmentName": "Department",
  "MRAcquisitionType": "2D",
  "MagneticFieldStrength": 3,
  "Manufacturer": "Siemens",
  "ManufacturersModelName": "Prisma",
  "Modality": "MR",
  "MultibandAccelerationFactor": 4,
  "PartialFourier": 0.875,
  "PatientPosition": "HFS",
  "PercentPhaseFOV": 100,
  "PhaseEncodingDirection": "j-",
  "PhaseEncodingSteps": 95,
  "PhaseResolution": 1,
  "PixelBandwidth": 2205,
  "ProcedureStepDescription": "J.DRM_Michael",
  "ProtocolName": "Run6_bold_s4_TR1.28",
  "PulseSequenceDetails": "%SiemensSeq%_ep2d_bold",
  "ReceiveCoilActiveElements": "HC1-7;NC1,2",
  "ReceiveCoilName": "HeadNeck_64",
  "ReconMatrixPE": 108,
  "RepetitionTime": 1.28,
  "SAR": 0.0663655,
  "ScanOptions": "PFP_FS",
  "ScanningSequence": "EP",
  "SequenceName": "_epfid2d1_108",
  "SequenceVariant": "SK",
  "SeriesDescription": "Run6_bold_s4_TR1.28",
  "SeriesNumber": 15,
  "ShimSetting": [-1234, -11634, 6407, 624, 172, -7, -102, 27],
  "SliceThickness": 2,
  "SliceTiming": [0.945, 0, 0.63, 0.0775, 0.7075, 0.1575, 0.7875, 0.235, 0.865, 0.3925, 1.0225, 0.4725, 1.1025, 0.55, 1.18, 0.315, 0.945, 0, 0.63, 0.0775, 0.7075, 0.1575, 0.7875, 0.235, 0.865, 0.3925, 1.0225, 0.4725, 1.1025, 0.55, 1.18, 0.315, 0.945, 0, 0.63, 0.0775, 0.7075, 0.1575, 0.7875, 0.235, 0.865, 0.3925, 1.0225, 0.4725, 1.1025, 0.55, 1.18, 0.315, 0.945, 0, 0.63, 0.0775, 0.7075, 0.1575, 0.7875, 0.235, 0.865, 0.3925, 1.0225, 0.4725, 1.1025, 0.55, 1.18, 0.315],
  "SoftwareVersions": "syngo_MR_E11",
  "SpacingBetweenSlices": 2,
  "StationName": "AWP66054",
  "TaskName": "main",
  "TotalReadoutTime": 0.0620609,
  "TxRefAmp": 237.501,
  "dcmmeta_affine": [
    [-1.986473798751831, 0.09715474396944046, 0.08718815445899963, 100.07919311523438],
    [0.04335590451955795, 1.7436535358428955, -0.9640681147575378, -63.57759475708008],
    [0.12284485995769501, 0.955657958984375, 1.7501345872879028, -100.52230834960938],
    [0.0, 0.0, 0.0, 1.0]
],
  "dcmmeta_reorient_transform": [
    [0.0, -1.0, 0.0, 107.0],
    [1.0, 0.0, 0.0, 0.0],
    [0.0, 0.0, 1.0, 0.0],
    [0.0, 0.0, 0.0, 1.0]
],
  "dcmmeta_shape": [108, 108, 64, 373],
  "dcmmeta_slice_dim": 2,
  "dcmmeta_version": 0.6,
  "global": {
    "const": {
      "AccessionNumber": "",
      "AcquisitionMatrix": [108, 0, 0, 108],
      "AngioFlag": "N",
      "BitsAllocated": 16,
      "BitsStored": 12,
      "BodyPartExamined": "BRAIN",
      "Columns": 864,
      "EchoNumbers": 1,
      "EchoTime": 31.0,
      "EchoTrainLength": 95,
      "FlipAngle": 64.0,
      "HighBit": 11,
      "ImageOrientationPatient": [0.99785659946054, -0.0217787803631, 0.06170811647538, 0.04880331147428, 0.87588175833218, -0.4800514370461],
      "ImagePositionPatient": [-898.08634803521, -765.70583353122, 316.53644676665],
      "ImageType": [
        "ORIGINAL",
        "PRIMARY",
        "M",
        "ND",
        "MOSAIC"
],
      "ImagedNucleus": "1H",
      "ImagingFrequency": 123.257479,
      "InPlanePhaseEncodingDirection": "COL",
      "MRAcquisitionType": "2D",
      "MagneticFieldStrength": 3.0,
      "Manufacturer": "SIEMENS",
      "ManufacturerModelName": "Prisma",
      "Modality": "MR",
      "NumberOfAverages": 1.0,
      "NumberOfPhaseEncodingSteps": 95,
      "PercentPhaseFieldOfView": 100.0,
      "PercentSampling": 100.0,
      "PerformedProcedureStepStartTime": "133648.082000",
      "PhotometricInterpretation": "MONOCHROME2",
      "PixelBandwidth": 2205.0,
      "PixelRepresentation": 0,
      "PixelSpacing": [1.990740776062, 1.990740776062],
      "PositionReferenceIndicator": "",
      "ProtocolName": "Run6_bold_s4_TR1.28",
      "RepetitionTime": 1280.0,
      "Rows": 864,
      "SAR": 0.06636550516334,
      "SamplesPerPixel": 1,
      "ScanOptions": [
        "PFP",
        "FS"
],
      "ScanningSequence": "EP",
      "SequenceName": "*epfid2d1_108",
      "SequenceVariant": "SK",
      "SeriesDescription": "Run6_bold_s4_TR1.28",
      "SeriesNumber": 15,
      "SeriesTime": "155017.777000",
      "SliceLocation": -52.954356696759,
      "SliceThickness": 2.0,
      "SmallestImagePixelValue": 0,
      "SoftwareVersions": "syngo MR E11",
      "SpacingBetweenSlices": 2.0000000113189,
      "SpecificCharacterSet": "ISO_IR 100",
      "StudyID": "1",
      "StudyTime": "133647.980000",
      "TransmitCoilName": "Body",
      "VariableFlipAngleFlag": "N",
      "WindowCenterWidthExplanation": "Algo1",
      "dBdt": 0.0},
    "slices": {}
  },
  "time": {
    "samples": {
      "AcquisitionNumber": [1, 2, 3, 4, 5, 6, 7, 8, 9, 10, 11, 12, 13, 14, 15, 16, 17, 18, 19, 20, 21, 22, 23, 24, 25, 26, 27, 28, 29, 30, 31, 32, 33, 34, 35, 36, 37, 38, 39, 40, 41, 42, 43, 44, 45, 46, 47, 48, 49, 50, 51, 52, 53, 54, 55, 56, 57, 58, 59, 60, 61, 62, 63, 64, 65, 66, 67, 68, 69, 70, 71, 72, 73, 74, 75, 76, 77, 78, 79, 80, 81, 82, 83, 84, 85, 86, 87, 88, 89, 90, 91, 92, 93, 94, 95, 96, 97, 98, 99, 100, 101, 102, 103, 104, 105, 106, 107, 108, 109, 110, 111, 112, 113, 114, 115, 116, 117, 118, 119, 120, 121, 122, 123, 124, 125, 126, 127, 128, 129, 130, 131, 132, 133, 134, 135, 136, 137, 138, 139, 140, 141, 142, 143, 144, 145, 146, 147, 148, 149, 150, 151, 152, 153, 154, 155, 156, 157, 158, 159, 160, 161, 162, 163, 164, 165, 166, 167, 168, 169, 170, 171, 172, 173, 174, 175, 176, 177, 178, 179, 180, 181, 182, 183, 184, 185, 186, 187, 188, 189, 190, 191, 192, 193, 194, 195, 196, 197, 198, 199, 200, 201, 202, 203, 204, 205, 206, 207, 208, 209, 210, 211, 212, 213, 214, 215, 216, 217, 218, 219, 220, 221, 222, 223, 224, 225, 226, 227, 228, 229, 230, 231, 232, 233, 234, 235, 236, 237, 238, 239, 240, 241, 242, 243, 244, 245, 246, 247, 248, 249, 250, 251, 252, 253, 254, 255, 256, 257, 258, 259, 260, 261, 262, 263, 264, 265, 266, 267, 268, 269, 270, 271, 272, 273, 274, 275, 276, 277, 278, 279, 280, 281, 282, 283, 284, 285, 286, 287, 288, 289, 290, 291, 292, 293, 294, 295, 296, 297, 298, 299, 300, 301, 302, 303, 304, 305, 306, 307, 308, 309, 310, 311, 312, 313, 314, 315, 316, 317, 318, 319, 320, 321, 322, 323, 324, 325, 326, 327, 328, 329, 330, 331, 332, 333, 334, 335, 336, 337, 338, 339, 340, 341, 342, 343, 344, 345, 346, 347, 348, 349, 350, 351, 352, 353, 354, 355, 356, 357, 358, 359, 360, 361, 362, 363, 364, 365, 366, 367, 368, 369, 370, 371, 372, 373],
      "AcquisitionTime": ["154951.017500", "154952.297500", "154953.577500", "154954.857500", "154956.137500", "154957.417500", "154958.697500", "154959.977500", "155001.257500", "155002.537500", "155003.817500", "155005.097500", "155006.377500", "155007.657500", "155008.937500", "155010.217500", "155011.497500", "155012.777500", "155014.057500", "155015.337500", "155016.617500", "155017.897500", "155019.177500", "155020.457500", "155021.737500", "155023.017500", "155024.297500", "155025.577500", "155026.857500", "155028.137500", "155029.417500", "155030.697500", "155031.977500", "155033.257500", "155034.537500", "155035.817500", "155037.097500", "155038.377500", "155039.657500", "155040.937500", "155042.217500", "155043.497500", "155044.777500", "155046.057500", "155047.337500", "155048.617500", "155049.897500", "155051.177500", "155052.457500", "155053.737500", "155055.017500", "155056.297500", "155057.577500", "155058.857500", "155100.137500", "155101.417500", "155102.697500", "155103.977500", "155105.257500", "155106.537500", "155107.817500", "155109.097500", "155110.377500", "155111.657500", "155112.937500", "155114.217500", "155115.497500", "155116.777500", "155118.057500", "155119.337500", "155120.617500", "155121.897500", "155123.177500", "155124.457500", "155125.737500", "155127.017500", "155128.297500", "155129.577500", "155130.857500", "155132.137500", "155133.417500", "155134.697500", "155135.977500", "155137.257500", "155138.537500", "155139.817500", "155141.097500", "155142.377500", "155143.657500", "155144.937500", "155146.217500", "155147.497500", "155148.777500", "155150.057500", "155151.337500", "155152.617500", "155153.897500", "155155.177500", "155156.457500", "155157.737500", "155159.017500", "155200.297500", "155201.577500", "155202.857500", "155204.137500", "155205.417500", "155206.697500", "155207.977500", "155209.257500", "155210.537500", "155211.817500", "155213.097500", "155214.377500", "155215.657500", "155216.937500", "155218.217500", "155219.497500", "155220.777500", "155222.057500", "155223.337500", "155224.617500", "155225.897500", "155227.177500", "155228.457500", "155229.737500", "155231.017500", "155232.297500", "155233.577500", "155234.857500", "155236.137500", "155237.417500", "155238.697500", "155239.977500", "155241.257500", "155242.537500", "155243.817500", "155245.097500", "155246.377500", "155247.657500", "155248.937500", "155250.217500", "155251.497500", "155252.777500", "155254.057500", "155255.337500", "155256.617500", "155257.897500", "155259.177500", "155300.457500", "155301.737500", "155303.017500", "155304.297500", "155305.577500", "155306.857500", "155308.137500", "155309.417500", "155310.697500", "155311.977500", "155313.257500", "155314.537500", "155315.817500", "155317.097500", "155318.377500", "155319.657500", "155320.937500", "155322.217500", "155323.497500", "155324.777500", "155326.057500", "155327.337500", "155328.617500", "155329.897500", "155331.177500", "155332.457500", "155333.737500", "155335.017500", "155336.297500", "155337.577500", "155338.857500", "155340.137500", "155341.417500", "155342.697500", "155343.977500", "155345.257500", "155346.537500", "155347.817500", "155349.097500", "155350.377500", "155351.657500", "155352.937500", "155354.217500", "155355.497500", "155356.777500", "155358.057500", "155359.337500", "155400.617500", "155401.897500", "155403.177500", "155404.457500", "155405.737500", "155407.017500", "155408.297500", "155409.577500", "155410.857500", "155412.137500", "155413.417500", "155414.697500", "155415.977500", "155417.257500", "155418.537500", "155419.817500", "155421.097500", "155422.377500", "155423.657500", "155424.937500", "155426.217500", "155427.497500", "155428.777500", "155430.057500", "155431.337500", "155432.617500", "155433.897500", "155435.177500", "155436.457500", "155437.737500", "155439.017500", "155440.297500", "155441.577500", "155442.857500", "155444.137500", "155445.417500", "155446.697500", "155447.977500", "155449.257500", "155450.537500", "155451.817500", "155453.097500", "155454.377500", "155455.657500", "155456.937500", "155458.217500", "155459.497500", "155500.777500", "155502.057500", "155503.337500", "155504.617500", "155505.897500", "155507.177500", "155508.457500", "155509.737500", "155511.017500", "155512.297500", "155513.577500", "155514.857500", "155516.137500", "155517.417500", "155518.697500", "155519.977500", "155521.257500", "155522.537500", "155523.817500", "155525.097500", "155526.377500", "155527.657500", "155528.937500", "155530.217500", "155531.497500", "155532.777500", "155534.057500", "155535.337500", "155536.617500", "155537.897500", "155539.177500", "155540.457500", "155541.737500", "155543.017500", "155544.297500", "155545.577500", "155546.857500", "155548.137500", "155549.417500", "155550.697500", "155551.977500", "155553.257500", "155554.537500", "155555.817500", "155557.097500", "155558.377500", "155559.657500", "155600.937500", "155602.217500", "155603.497500", "155604.777500", "155606.057500", "155607.337500", "155608.617500", "155609.897500", "155611.177500", "155612.457500", "155613.737500", "155615.017500", "155616.297500", "155617.577500", "155618.857500", "155620.137500", "155621.417500", "155622.697500", "155623.977500", "155625.257500", "155626.537500", "155627.817500", "155629.097500", "155630.377500", "155631.657500", "155632.937500", "155634.217500", "155635.497500", "155636.777500", "155638.057500", "155639.337500", "155640.617500", "155641.897500", "155643.177500", "155644.457500", "155645.737500", "155647.017500", "155648.297500", "155649.577500", "155650.857500", "155652.137500", "155653.417500", "155654.697500", "155655.977500", "155657.257500", "155658.537500", "155659.817500", "155701.097500", "155702.377500", "155703.657500", "155704.937500", "155706.217500", "155707.497500", "155708.777500", "155710.057500", "155711.337500", "155712.617500", "155713.897500", "155715.177500", "155716.457500", "155717.737500", "155719.017500", "155720.297500", "155721.577500", "155722.857500", "155724.137500", "155725.417500", "155726.697500", "155727.977500", "155729.257500", "155730.537500", "155731.817500", "155733.097500", "155734.377500", "155735.657500", "155736.937500", "155738.217500", "155739.497500", "155740.777500", "155742.057500", "155743.337500", "155744.617500", "155745.897500", "155747.177500"],
      "ContentTime": ["155017.781000", "155017.785000", "155017.788000", "155017.790000", "155017.794000", "155017.796000", "155017.799000", "155017.811000", "155017.814000", "155017.817000", "155017.819000", "155017.822000", "155017.825000", "155017.828000", "155017.831000", "155017.834000", "155017.837000", "155017.840000", "155017.842000", "155017.845000", "155057.775000", "155057.778000", "155057.781000", "155057.784000", "155057.787000", "155057.790000", "155057.793000", "155057.795000", "155057.798000", "155057.801000", "155057.804000", "155057.807000", "155057.810000", "155057.813000", "155057.815000", "155057.818000", "155057.821000", "155057.824000", "155057.827000", "155057.830000", "155057.833000", "155057.835000", "155057.838000", "155057.841000", "155057.844000", "155057.847000", "155057.850000", "155057.852000", "155057.855000", "155057.858000", "155057.861000", "155137.775000", "155137.778000", "155137.781000", "155137.784000", "155137.787000", "155137.790000", "155137.792000", "155137.795000", "155137.798000", "155137.801000", "155137.804000", "155137.807000", "155137.809000", "155137.812000", "155137.815000", "155137.818000", "155137.821000", "155137.824000", "155137.827000", "155137.829000", "155137.832000", "155137.835000", "155137.838000", "155137.841000", "155137.844000", "155137.847000", "155137.850000", "155137.853000", "155137.860000", "155137.862000", "155137.865000", "155137.868000", "155217.776000", "155217.779000", "155217.782000", "155217.785000", "155217.788000", "155217.790000", "155217.793000", "155217.796000", "155217.799000", "155217.802000", "155217.805000", "155217.808000", "155217.811000", "155217.813000", "155217.816000", "155217.819000", "155217.822000", "155217.825000", "155217.828000", "155217.841000", "155217.844000", "155217.847000", "155217.850000", "155217.853000", "155217.856000", "155217.859000", "155217.862000", "155217.865000", "155217.867000", "155217.870000", "155217.873000", "155257.775000", "155257.778000", "155257.781000", "155257.784000", "155257.787000", "155257.790000", "155257.793000", "155257.796000", "155257.799000", "155257.802000", "155257.804000", "155257.807000", "155257.810000", "155257.813000", "155257.816000", "155257.819000", "155257.822000", "155257.824000", "155257.827000", "155257.830000", "155257.833000", "155257.836000", "155257.839000", "155257.842000", "155257.845000", "155257.847000", "155257.850000", "155257.853000", "155257.856000", "155257.859000", "155257.862000", "155337.775000", "155337.778000", "155337.781000", "155337.784000", "155337.786000", "155337.789000", "155337.792000", "155337.795000", "155337.798000", "155337.801000", "155337.804000", "155337.806000", "155337.809000", "155337.812000", "155337.815000", "155337.818000", "155337.820000", "155337.823000", "155337.826000", "155337.829000", "155337.832000", "155337.835000", "155337.838000", "155337.840000", "155337.843000", "155337.846000", "155337.849000", "155337.852000", "155337.854000", "155337.857000", "155337.860000", "155417.775000", "155417.778000", "155417.781000", "155417.784000", "155417.786000", "155417.789000", "155417.792000", "155417.795000", "155417.798000", "155417.801000", "155417.803000", "155417.806000", "155417.809000", "155417.812000", "155417.815000", "155417.818000", "155417.820000", "155417.823000", "155417.826000", "155417.829000", "155417.832000", "155417.835000", "155417.837000", "155417.840000", "155417.843000", "155417.846000", "155417.849000", "155417.852000", "155417.855000", "155417.858000", "155417.860000", "155417.863000", "155457.776000", "155457.779000", "155457.782000", "155457.785000", "155457.787000", "155457.790000", "155457.793000", "155457.796000", "155457.799000", "155457.811000", "155457.814000", "155457.817000", "155457.820000", "155457.823000", "155457.826000", "155457.829000", "155457.832000", "155457.835000", "155457.838000", "155457.840000", "155457.843000", "155457.846000", "155457.849000", "155457.852000", "155457.855000", "155457.858000", "155457.861000", "155457.863000", "155457.866000", "155457.869000", "155457.872000", "155517.775000", "155517.778000", "155517.781000", "155517.784000", "155517.787000", "155517.789000", "155517.792000", "155517.795000", "155517.798000", "155517.801000", "155517.822000", "155517.825000", "155517.828000", "155517.831000", "155517.834000", "155517.837000", "155557.775000", "155557.778000", "155557.781000", "155557.784000", "155557.787000", "155557.789000", "155557.792000", "155557.795000", "155557.798000", "155557.801000", "155557.804000", "155557.807000", "155557.815000", "155557.818000", "155557.821000", "155557.823000", "155557.827000", "155557.829000", "155557.832000", "155557.835000", "155557.838000", "155557.841000", "155557.844000", "155557.847000", "155557.850000", "155557.853000", "155557.855000", "155557.858000", "155557.861000", "155557.864000", "155557.867000", "155637.775000", "155637.778000", "155637.781000", "155637.784000", "155637.787000", "155637.790000", "155637.792000", "155637.806000", "155637.809000", "155637.811000", "155637.814000", "155637.817000", "155637.820000", "155637.823000", "155637.826000", "155637.829000", "155637.832000", "155637.834000", "155637.837000", "155637.840000", "155637.843000", "155637.846000", "155637.849000", "155637.852000", "155637.854000", "155637.857000", "155637.860000", "155637.863000", "155637.866000", "155637.868000", "155637.871000", "155717.776000", "155717.779000", "155717.782000", "155717.785000", "155717.788000", "155717.791000", "155717.793000", "155717.796000", "155717.799000", "155717.802000", "155717.805000", "155717.808000", "155717.810000", "155717.813000", "155717.816000", "155717.819000", "155717.822000", "155717.825000", "155717.828000", "155717.831000", "155717.833000", "155717.836000", "155717.839000", "155717.842000", "155717.845000", "155717.848000", "155717.851000", "155717.854000", "155717.857000", "155717.859000", "155717.862000", "155748.770000", "155748.784000", "155748.787000", "155748.789000", "155748.792000", "155748.801000", "155748.804000", "155748.806000", "155748.809000", "155748.812000", "155748.815000", "155748.818000", "155748.821000", "155748.824000", "155748.827000", "155748.830000", "155748.833000", "155748.835000", "155748.838000", "155748.841000", "155748.844000", "155748.847000", "155748.850000", "155748.853000", "155748.855000"],
      "InstanceCreationTime": ["155017.781000", "155017.785000", "155017.788000", "155017.790000", "155017.794000", "155017.796000", "155017.799000", "155017.811000", "155017.814000", "155017.817000", "155017.819000", "155017.822000", "155017.825000", "155017.828000", "155017.831000", "155017.834000", "155017.837000", "155017.840000", "155017.842000", "155017.845000", "155057.775000", "155057.778000", "155057.781000", "155057.784000", "155057.787000", "155057.790000", "155057.793000", "155057.795000", "155057.798000", "155057.801000", "155057.804000", "155057.807000", "155057.810000", "155057.813000", "155057.815000", "155057.818000", "155057.821000", "155057.824000", "155057.827000", "155057.830000", "155057.833000", "155057.835000", "155057.838000", "155057.841000", "155057.844000", "155057.847000", "155057.850000", "155057.852000", "155057.855000", "155057.858000", "155057.861000", "155137.775000", "155137.778000", "155137.781000", "155137.784000", "155137.787000", "155137.790000", "155137.792000", "155137.795000", "155137.798000", "155137.801000", "155137.804000", "155137.807000", "155137.809000", "155137.812000", "155137.815000", "155137.818000", "155137.821000", "155137.824000", "155137.827000", "155137.829000", "155137.832000", "155137.835000", "155137.838000", "155137.841000", "155137.844000", "155137.847000", "155137.850000", "155137.853000", "155137.860000", "155137.862000", "155137.865000", "155137.868000", "155217.776000", "155217.779000", "155217.782000", "155217.785000", "155217.788000", "155217.790000", "155217.793000", "155217.796000", "155217.799000", "155217.802000", "155217.805000", "155217.808000", "155217.811000", "155217.813000", "155217.816000", "155217.819000", "155217.822000", "155217.825000", "155217.828000", "155217.841000", "155217.844000", "155217.847000", "155217.850000", "155217.853000", "155217.856000", "155217.859000", "155217.862000", "155217.865000", "155217.867000", "155217.870000", "155217.873000", "155257.775000", "155257.778000", "155257.781000", "155257.784000", "155257.787000", "155257.790000", "155257.793000", "155257.796000", "155257.799000", "155257.802000", "155257.804000", "155257.807000", "155257.810000", "155257.813000", "155257.816000", "155257.819000", "155257.822000", "155257.824000", "155257.827000", "155257.830000", "155257.833000", "155257.836000", "155257.839000", "155257.842000", "155257.845000", "155257.847000", "155257.850000", "155257.853000", "155257.856000", "155257.859000", "155257.862000", "155337.775000", "155337.778000", "155337.781000", "155337.784000", "155337.786000", "155337.789000", "155337.792000", "155337.795000", "155337.798000", "155337.801000", "155337.804000", "155337.806000", "155337.809000", "155337.812000", "155337.815000", "155337.818000", "155337.820000", "155337.823000", "155337.826000", "155337.829000", "155337.832000", "155337.835000", "155337.838000", "155337.840000", "155337.843000", "155337.846000", "155337.849000", "155337.852000", "155337.854000", "155337.857000", "155337.860000", "155417.775000", "155417.778000", "155417.781000", "155417.784000", "155417.786000", "155417.789000", "155417.792000", "155417.795000", "155417.798000", "155417.801000", "155417.803000", "155417.806000", "155417.809000", "155417.812000", "155417.815000", "155417.818000", "155417.820000", "155417.823000", "155417.826000", "155417.829000", "155417.832000", "155417.835000", "155417.837000", "155417.840000", "155417.843000", "155417.846000", "155417.849000", "155417.852000", "155417.855000", "155417.858000", "155417.860000", "155417.863000", "155457.776000", "155457.779000", "155457.782000", "155457.785000", "155457.787000", "155457.790000", "155457.793000", "155457.796000", "155457.799000", "155457.811000", "155457.814000", "155457.817000", "155457.820000", "155457.823000", "155457.826000", "155457.829000", "155457.832000", "155457.835000", "155457.838000", "155457.840000", "155457.843000", "155457.846000", "155457.849000", "155457.852000", "155457.855000", "155457.858000", "155457.861000", "155457.863000", "155457.866000", "155457.869000", "155457.872000", "155517.775000", "155517.778000", "155517.781000", "155517.784000", "155517.787000", "155517.789000", "155517.792000", "155517.795000", "155517.798000", "155517.801000", "155517.822000", "155517.825000", "155517.828000", "155517.831000", "155517.834000", "155517.837000", "155557.775000", "155557.778000", "155557.781000", "155557.784000", "155557.787000", "155557.789000", "155557.792000", "155557.795000", "155557.798000", "155557.801000", "155557.804000", "155557.807000", "155557.815000", "155557.818000", "155557.821000", "155557.823000", "155557.827000", "155557.829000", "155557.832000", "155557.835000", "155557.838000", "155557.841000", "155557.844000", "155557.847000", "155557.850000", "155557.853000", "155557.855000", "155557.858000", "155557.861000", "155557.864000", "155557.867000", "155637.775000", "155637.778000", "155637.781000", "155637.784000", "155637.787000", "155637.790000", "155637.792000", "155637.806000", "155637.809000", "155637.811000", "155637.814000", "155637.817000", "155637.820000", "155637.823000", "155637.826000", "155637.829000", "155637.832000", "155637.834000", "155637.837000", "155637.840000", "155637.843000", "155637.846000", "155637.849000", "155637.852000", "155637.854000", "155637.857000", "155637.860000", "155637.863000", "155637.866000", "155637.868000", "155637.871000", "155717.776000", "155717.779000", "155717.782000", "155717.785000", "155717.788000", "155717.791000", "155717.793000", "155717.796000", "155717.799000", "155717.802000", "155717.805000", "155717.808000", "155717.810000", "155717.813000", "155717.816000", "155717.819000", "155717.822000", "155717.825000", "155717.828000", "155717.831000", "155717.833000", "155717.836000", "155717.839000", "155717.842000", "155717.845000", "155717.848000", "155717.851000", "155717.854000", "155717.857000", "155717.859000", "155717.862000", "155748.770000", "155748.784000", "155748.787000", "155748.789000", "155748.792000", "155748.801000", "155748.804000", "155748.806000", "155748.809000", "155748.812000", "155748.815000", "155748.818000", "155748.821000", "155748.824000", "155748.827000", "155748.830000", "155748.833000", "155748.835000", "155748.838000", "155748.841000", "155748.844000", "155748.847000", "155748.850000", "155748.853000", "155748.855000"],
      "InstanceNumber": [1, 2, 3, 4, 5, 6, 7, 8, 9, 10, 11, 12, 13, 14, 15, 16, 17, 18, 19, 20, 21, 22, 23, 24, 25, 26, 27, 28, 29, 30, 31, 32, 33, 34, 35, 36, 37, 38, 39, 40, 41, 42, 43, 44, 45, 46, 47, 48, 49, 50, 51, 52, 53, 54, 55, 56, 57, 58, 59, 60, 61, 62, 63, 64, 65, 66, 67, 68, 69, 70, 71, 72, 73, 74, 75, 76, 77, 78, 79, 80, 81, 82, 83, 84, 85, 86, 87, 88, 89, 90, 91, 92, 93, 94, 95, 96, 97, 98, 99, 100, 101, 102, 103, 104, 105, 106, 107, 108, 109, 110, 111, 112, 113, 114, 115, 116, 117, 118, 119, 120, 121, 122, 123, 124, 125, 126, 127, 128, 129, 130, 131, 132, 133, 134, 135, 136, 137, 138, 139, 140, 141, 142, 143, 144, 145, 146, 147, 148, 149, 150, 151, 152, 153, 154, 155, 156, 157, 158, 159, 160, 161, 162, 163, 164, 165, 166, 167, 168, 169, 170, 171, 172, 173, 174, 175, 176, 177, 178, 179, 180, 181, 182, 183, 184, 185, 186, 187, 188, 189, 190, 191, 192, 193, 194, 195, 196, 197, 198, 199, 200, 201, 202, 203, 204, 205, 206, 207, 208, 209, 210, 211, 212, 213, 214, 215, 216, 217, 218, 219, 220, 221, 222, 223, 224, 225, 226, 227, 228, 229, 230, 231, 232, 233, 234, 235, 236, 237, 238, 239, 240, 241, 242, 243, 244, 245, 246, 247, 248, 249, 250, 251, 252, 253, 254, 255, 256, 257, 258, 259, 260, 261, 262, 263, 264, 265, 266, 267, 268, 269, 270, 271, 272, 273, 274, 275, 276, 277, 278, 279, 280, 281, 282, 283, 284, 285, 286, 287, 288, 289, 290, 291, 292, 293, 294, 295, 296, 297, 298, 299, 300, 301, 302, 303, 304, 305, 306, 307, 308, 309, 310, 311, 312, 313, 314, 315, 316, 317, 318, 319, 320, 321, 322, 323, 324, 325, 326, 327, 328, 329, 330, 331, 332, 333, 334, 335, 336, 337, 338, 339, 340, 341, 342, 343, 344, 345, 346, 347, 348, 349, 350, 351, 352, 353, 354, 355, 356, 357, 358, 359, 360, 361, 362, 363, 364, 365, 366, 367, 368, 369, 370, 371, 372, 373],
