{
  "AcquisitionMatrixPE": 108,
  "AcquisitionNumber": 1,
  "AcquisitionTime": "14:41:40.250000",
  "BandwidthPerPixelPhaseEncode": 15.964,
  "BaseResolution": 108,
  "BodyPartExamined": "BRAIN",
  "ConsistencyInfo": "N4_VE11C_LATEST_20160120",
  "ConversionSoftware": "dcm2niix",
  "ConversionSoftwareVersion": "v1.0.20180622 GCC6.3.0",
  "DerivedVendorReportedEchoSpacing": 0.000580009,
  "DeviceSerialNumber": "66054",
  "DwellTime": 2.1e-06,
  "EchoTime": 0.031,
  "EchoTrainLength": 95,
  "EffectiveEchoSpacing": 0.000580009,
  "FlipAngle": 64,
  "ImageOrientationPatientDICOM": [0.997857, -0.0217788, 0.0617081, 0.0488033, 0.875882, -0.480051],
  "ImageType": [
    "ORIGINAL",
    "PRIMARY",
    "M",
    "ND",
    "MOSAIC"
],
  "InPlanePhaseEncodingDirectionDICOM": "COL",
  "InstitutionAddress": "Chemin_des_Mines_9_Geneve_District_CH_1211",
  "InstitutionName": "Fondation_Campus_Biotech_Geneva",
  "InstitutionalDepartmentName": "Department",
  "MRAcquisitionType": "2D",
  "MagneticFieldStrength": 3,
  "Manufacturer": "Siemens",
  "ManufacturersModelName": "Prisma",
  "Modality": "MR",
  "MultibandAccelerationFactor": 4,
  "PartialFourier": 0.875,
  "PatientPosition": "HFS",
  "PercentPhaseFOV": 100,
  "PhaseEncodingDirection": "j-",
  "PhaseEncodingSteps": 95,
  "PhaseResolution": 1,
  "PixelBandwidth": 2205,
  "ProcedureStepDescription": "J.DRM_Michael",
  "ProtocolName": "Run1_bold_s4_TR1.28",
  "PulseSequenceDetails": "%SiemensSeq%_ep2d_bold",
  "ReceiveCoilActiveElements": "HC1-7;NC1,2",
  "ReceiveCoilName": "HeadNeck_64",
  "ReconMatrixPE": 108,
  "RepetitionTime": 1.28,
  "SAR": 0.0663655,
  "ScanOptions": "PFP_FS",
  "ScanningSequence": "EP",
  "SequenceName": "_epfid2d1_108",
  "SequenceVariant": "SK",
  "SeriesDescription": "Run1_bold_s4_TR1.28",
  "SeriesNumber": 5,
  "ShimSetting": [-1234, -11634, 6407, 624, 172, -7, -102, 27],
  "SliceThickness": 2,
  "SliceTiming": [0.945, 0, 0.63, 0.0775, 0.7075, 0.1575, 0.7875, 0.235, 0.865, 0.3925, 1.0225, 0.4725, 1.1025, 0.55, 1.18, 0.315, 0.945, 0, 0.63, 0.0775, 0.7075, 0.1575, 0.7875, 0.235, 0.865, 0.3925, 1.0225, 0.4725, 1.1025, 0.55, 1.18, 0.315, 0.945, 0, 0.63, 0.0775, 0.7075, 0.1575, 0.7875, 0.235, 0.865, 0.3925, 1.0225, 0.4725, 1.1025, 0.55, 1.18, 0.315, 0.945, 0, 0.63, 0.0775, 0.7075, 0.1575, 0.7875, 0.235, 0.865, 0.3925, 1.0225, 0.4725, 1.1025, 0.55, 1.18, 0.315],
  "SoftwareVersions": "syngo_MR_E11",
  "SpacingBetweenSlices": 2,
  "StationName": "AWP66054",
  "TaskName": "main",
  "TotalReadoutTime": 0.0620609,
  "TxRefAmp": 237.501,
  "dcmmeta_affine": [
    [-1.986473798751831, 0.09715474396944046, 0.08718815445899963, 100.07919311523438],
    [0.04335590451955795, 1.7436535358428955, -0.9640681147575378, -63.57759475708008],
    [0.12284485995769501, 0.955657958984375, 1.7501345872879028, -100.52230834960938],
    [0.0, 0.0, 0.0, 1.0]
],
  "dcmmeta_reorient_transform": [
    [0.0, -1.0, 0.0, 107.0],
    [1.0, 0.0, 0.0, 0.0],
    [0.0, 0.0, 1.0, 0.0],
    [0.0, 0.0, 0.0, 1.0]
],
  "dcmmeta_shape": [108, 108, 64, 373],
  "dcmmeta_slice_dim": 2,
  "dcmmeta_version": 0.6,
  "global": {
    "const": {
      "AccessionNumber": "",
      "AcquisitionMatrix": [108, 0, 0, 108],
      "AngioFlag": "N",
      "BitsAllocated": 16,
      "BitsStored": 12,
      "BodyPartExamined": "BRAIN",
      "Columns": 864,
      "EchoNumbers": 1,
      "EchoTime": 31.0,
      "EchoTrainLength": 95,
      "FlipAngle": 64.0,
      "HighBit": 11,
      "ImageOrientationPatient": [0.99785659946054, -0.0217787803631, 0.06170811647538, 0.04880331147428, 0.87588175833218, -0.4800514370461],
      "ImagePositionPatient": [-898.08634803521, -765.70583353122, 316.53644676665],
      "ImageType": [
        "ORIGINAL",
        "PRIMARY",
        "M",
        "ND",
        "MOSAIC"
],
      "ImagedNucleus": "1H",
      "ImagingFrequency": 123.257443,
      "InPlanePhaseEncodingDirection": "COL",
      "MRAcquisitionType": "2D",
      "MagneticFieldStrength": 3.0,
      "Manufacturer": "SIEMENS",
      "ManufacturerModelName": "Prisma",
      "Modality": "MR",
      "NumberOfAverages": 1.0,
      "NumberOfPhaseEncodingSteps": 95,
      "PercentPhaseFieldOfView": 100.0,
      "PercentSampling": 100.0,
      "PerformedProcedureStepStartTime": "133648.082000",
      "PhotometricInterpretation": "MONOCHROME2",
      "PixelBandwidth": 2205.0,
      "PixelRepresentation": 0,
      "PixelSpacing": [1.990740776062, 1.990740776062],
      "PositionReferenceIndicator": "",
      "ProtocolName": "Run1_bold_s4_TR1.28",
      "RepetitionTime": 1280.0,
      "Rows": 864,
      "SAR": 0.06636550516334,
      "SamplesPerPixel": 1,
      "ScanOptions": [
        "PFP",
        "FS"
],
      "ScanningSequence": "EP",
      "SequenceName": "*epfid2d1_108",
      "SequenceVariant": "SK",
      "SeriesDescription": "Run1_bold_s4_TR1.28",
      "SeriesNumber": 5,
      "SeriesTime": "144217.776000",
      "SliceLocation": -52.954356696759,
      "SliceThickness": 2.0,
      "SmallestImagePixelValue": 0,
      "SoftwareVersions": "syngo MR E11",
      "SpacingBetweenSlices": 2.0000000113189,
      "SpecificCharacterSet": "ISO_IR 100",
      "StudyID": "1",
      "StudyTime": "133647.980000",
      "TransmitCoilName": "Body",
      "VariableFlipAngleFlag": "N",
      "WindowCenterWidthExplanation": "Algo1",
      "dBdt": 0.0},
    "slices": {}
  },
  "time": {
    "samples": {
      "AcquisitionNumber": [1, 2, 3, 4, 5, 6, 7, 8, 9, 10, 11, 12, 13, 14, 15, 16, 17, 18, 19, 20, 21, 22, 23, 24, 25, 26, 27, 28, 29, 30, 31, 32, 33, 34, 35, 36, 37, 38, 39, 40, 41, 42, 43, 44, 45, 46, 47, 48, 49, 50, 51, 52, 53, 54, 55, 56, 57, 58, 59, 60, 61, 62, 63, 64, 65, 66, 67, 68, 69, 70, 71, 72, 73, 74, 75, 76, 77, 78, 79, 80, 81, 82, 83, 84, 85, 86, 87, 88, 89, 90, 91, 92, 93, 94, 95, 96, 97, 98, 99, 100, 101, 102, 103, 104, 105, 106, 107, 108, 109, 110, 111, 112, 113, 114, 115, 116, 117, 118, 119, 120, 121, 122, 123, 124, 125, 126, 127, 128, 129, 130, 131, 132, 133, 134, 135, 136, 137, 138, 139, 140, 141, 142, 143, 144, 145, 146, 147, 148, 149, 150, 151, 152, 153, 154, 155, 156, 157, 158, 159, 160, 161, 162, 163, 164, 165, 166, 167, 168, 169, 170, 171, 172, 173, 174, 175, 176, 177, 178, 179, 180, 181, 182, 183, 184, 185, 186, 187, 188, 189, 190, 191, 192, 193, 194, 195, 196, 197, 198, 199, 200, 201, 202, 203, 204, 205, 206, 207, 208, 209, 210, 211, 212, 213, 214, 215, 216, 217, 218, 219, 220, 221, 222, 223, 224, 225, 226, 227, 228, 229, 230, 231, 232, 233, 234, 235, 236, 237, 238, 239, 240, 241, 242, 243, 244, 245, 246, 247, 248, 249, 250, 251, 252, 253, 254, 255, 256, 257, 258, 259, 260, 261, 262, 263, 264, 265, 266, 267, 268, 269, 270, 271, 272, 273, 274, 275, 276, 277, 278, 279, 280, 281, 282, 283, 284, 285, 286, 287, 288, 289, 290, 291, 292, 293, 294, 295, 296, 297, 298, 299, 300, 301, 302, 303, 304, 305, 306, 307, 308, 309, 310, 311, 312, 313, 314, 315, 316, 317, 318, 319, 320, 321, 322, 323, 324, 325, 326, 327, 328, 329, 330, 331, 332, 333, 334, 335, 336, 337, 338, 339, 340, 341, 342, 343, 344, 345, 346, 347, 348, 349, 350, 351, 352, 353, 354, 355, 356, 357, 358, 359, 360, 361, 362, 363, 364, 365, 366, 367, 368, 369, 370, 371, 372, 373],
      "AcquisitionTime": ["144140.250000", "144141.530000", "144142.810000", "144144.090000", "144145.370000", "144146.650000", "144147.930000", "144149.210000", "144150.490000", "144151.770000", "144153.050000", "144154.330000", "144155.610000", "144156.890000", "144158.170000", "144159.450000", "144200.730000", "144202.010000", "144203.290000", "144204.570000", "144205.850000", "144207.130000", "144208.410000", "144209.690000", "144210.970000", "144212.250000", "144213.530000", "144214.810000", "144216.090000", "144217.370000", "144218.650000", "144219.930000", "144221.210000", "144222.490000", "144223.770000", "144225.050000", "144226.330000", "144227.610000", "144228.890000", "144230.170000", "144231.450000", "144232.730000", "144234.010000", "144235.290000", "144236.570000", "144237.850000", "144239.130000", "144240.410000", "144241.690000", "144242.970000", "144244.250000", "144245.530000", "144246.810000", "144248.090000", "144249.370000", "144250.650000", "144251.930000", "144253.210000", "144254.490000", "144255.770000", "144257.050000", "144258.330000", "144259.610000", "144300.890000", "144302.170000", "144303.450000", "144304.730000", "144306.010000", "144307.290000", "144308.570000", "144309.850000", "144311.130000", "144312.410000", "144313.690000", "144314.970000", "144316.250000", "144317.530000", "144318.810000", "144320.090000", "144321.370000", "144322.650000", "144323.930000", "144325.210000", "144326.490000", "144327.770000", "144329.050000", "144330.330000", "144331.610000", "144332.890000", "144334.170000", "144335.450000", "144336.730000", "144338.010000", "144339.290000", "144340.570000", "144341.850000", "144343.130000", "144344.410000", "144345.690000", "144346.970000", "144348.250000", "144349.530000", "144350.810000", "144352.090000", "144353.370000", "144354.650000", "144355.930000", "144357.210000", "144358.490000", "144359.770000", "144401.050000", "144402.330000", "144403.610000", "144404.890000", "144406.170000", "144407.450000", "144408.730000", "144410.010000", "144411.290000", "144412.570000", "144413.850000", "144415.130000", "144416.410000", "144417.690000", "144418.970000", "144420.250000", "144421.530000", "144422.810000", "144424.090000", "144425.370000", "144426.650000", "144427.930000", "144429.210000", "144430.490000", "144431.770000", "144433.050000", "144434.330000", "144435.610000", "144436.890000", "144438.170000", "144439.450000", "144440.730000", "144442.010000", "144443.290000", "144444.570000", "144445.850000", "144447.130000", "144448.410000", "144449.690000", "144450.970000", "144452.250000", "144453.530000", "144454.810000", "144456.090000", "144457.370000", "144458.650000", "144459.930000", "144501.210000", "144502.490000", "144503.770000", "144505.050000", "144506.330000", "144507.610000", "144508.890000", "144510.170000", "144511.450000", "144512.730000", "144514.010000", "144515.290000", "144516.570000", "144517.850000", "144519.130000", "144520.410000", "144521.690000", "144522.970000", "144524.250000", "144525.530000", "144526.810000", "144528.090000", "144529.370000", "144530.650000", "144531.930000", "144533.210000", "144534.490000", "144535.770000", "144537.050000", "144538.330000", "144539.610000", "144540.890000", "144542.170000", "144543.450000", "144544.730000", "144546.010000", "144547.290000", "144548.570000", "144549.850000", "144551.130000", "144552.410000", "144553.690000", "144554.970000", "144556.250000", "144557.530000", "144558.810000", "144600.090000", "144601.370000", "144602.650000", "144603.930000", "144605.210000", "144606.490000", "144607.770000", "144609.050000", "144610.330000", "144611.610000", "144612.890000", "144614.170000", "144615.450000", "144616.730000", "144618.010000", "144619.290000", "144620.570000", "144621.850000", "144623.130000", "144624.410000", "144625.690000", "144626.970000", "144628.250000", "144629.530000", "144630.810000", "144632.090000", "144633.370000", "144634.650000", "144635.930000", "144637.210000", "144638.490000", "144639.770000", "144641.050000", "144642.330000", "144643.610000", "144644.890000", "144646.170000", "144647.450000", "144648.730000", "144650.010000", "144651.290000", "144652.570000", "144653.850000", "144655.130000", "144656.410000", "144657.690000", "144658.970000", "144700.250000", "144701.530000", "144702.810000", "144704.090000", "144705.370000", "144706.650000", "144707.930000", "144709.210000", "144710.490000", "144711.770000", "144713.050000", "144714.330000", "144715.610000", "144716.890000", "144718.170000", "144719.450000", "144720.730000", "144722.010000", "144723.290000", "144724.570000", "144725.850000", "144727.130000", "144728.410000", "144729.690000", "144730.970000", "144732.250000", "144733.530000", "144734.810000", "144736.090000", "144737.370000", "144738.650000", "144739.930000", "144741.210000", "144742.490000", "144743.770000", "144745.050000", "144746.330000", "144747.610000", "144748.890000", "144750.170000", "144751.450000", "144752.730000", "144754.010000", "144755.290000", "144756.570000", "144757.850000", "144759.130000", "144800.410000", "144801.690000", "144802.970000", "144804.250000", "144805.530000", "144806.810000", "144808.090000", "144809.370000", "144810.650000", "144811.930000", "144813.210000", "144814.490000", "144815.770000", "144817.050000", "144818.330000", "144819.610000", "144820.890000", "144822.170000", "144823.450000", "144824.730000", "144826.010000", "144827.290000", "144828.570000", "144829.850000", "144831.130000", "144832.410000", "144833.690000", "144834.970000", "144836.250000", "144837.530000", "144838.810000", "144840.090000", "144841.370000", "144842.650000", "144843.930000", "144845.210000", "144846.490000", "144847.770000", "144849.050000", "144850.330000", "144851.610000", "144852.890000", "144854.170000", "144855.450000", "144856.730000", "144858.010000", "144859.290000", "144900.570000", "144901.850000", "144903.130000", "144904.410000", "144905.690000", "144906.970000", "144908.250000", "144909.530000", "144910.810000", "144912.090000", "144913.370000", "144914.650000", "144915.930000", "144917.210000", "144918.490000", "144919.770000", "144921.050000", "144922.330000", "144923.610000", "144924.890000", "144926.170000", "144927.450000", "144928.730000", "144930.010000", "144931.290000", "144932.570000", "144933.850000", "144935.130000", "144936.410000"],
      "ContentTime": ["144217.780000", "144217.784000", "144217.786000", "144217.789000", "144217.792000", "144217.795000", "144217.798000", "144217.801000", "144217.804000", "144217.807000", "144217.810000", "144217.812000", "144217.815000", "144217.820000", "144217.833000", "144217.835000", "144217.838000", "144217.841000", "144217.844000", "144217.847000", "144217.850000", "144217.853000", "144217.856000", "144217.859000", "144217.870000", "144217.873000", "144217.876000", "144217.879000", "144217.881000", "144257.776000", "144257.779000", "144257.782000", "144257.785000", "144257.788000", "144257.791000", "144257.794000", "144257.797000", "144257.800000", "144257.803000", "144257.805000", "144257.808000", "144257.811000", "144257.814000", "144257.817000", "144257.820000", "144257.823000", "144257.826000", "144257.829000", "144257.831000", "144257.834000", "144257.837000", "144257.840000", "144257.843000", "144257.846000", "144257.849000", "144257.852000", "144257.854000", "144257.857000", "144257.860000", "144257.863000", "144337.775000", "144337.778000", "144337.781000", "144337.784000", "144337.787000", "144337.790000", "144337.793000", "144337.796000", "144337.799000", "144337.802000", "144337.805000", "144337.808000", "144337.811000", "144337.813000", "144337.817000", "144337.819000", "144337.822000", "144337.825000", "144337.828000", "144337.831000", "144337.834000", "144337.837000", "144337.840000", "144337.843000", "144337.845000", "144337.848000", "144337.851000", "144337.854000", "144337.857000", "144337.860000", "144337.863000", "144337.866000", "144417.775000", "144417.778000", "144417.781000", "144417.784000", "144417.787000", "144417.790000", "144417.793000", "144417.796000", "144417.799000", "144417.801000", "144417.804000", "144417.807000", "144417.810000", "144417.813000", "144417.816000", "144417.819000", "144417.822000", "144417.825000", "144417.828000", "144417.830000", "144417.833000", "144417.836000", "144417.839000", "144417.842000", "144417.845000", "144417.848000", "144417.851000", "144417.854000", "144417.857000", "144417.860000", "144417.862000", "144457.775000", "144457.778000", "144457.781000", "144457.784000", "144457.787000", "144457.790000", "144457.793000", "144457.796000", "144457.799000", "144457.802000", "144457.804000", "144457.808000", "144457.810000", "144457.813000", "144457.818000", "144457.821000", "144457.824000", "144457.827000", "144457.830000", "144457.833000", "144457.835000", "144457.838000", "144457.841000", "144457.844000", "144457.847000", "144457.850000", "144457.853000", "144457.856000", "144457.859000", "144457.862000", "144457.864000", "144517.776000", "144517.779000", "144517.782000", "144517.785000", "144517.788000", "144517.791000", "144517.794000", "144517.796000", "144517.800000", "144517.802000", "144517.805000", "144517.808000", "144517.811000", "144517.814000", "144517.817000", "144517.820000", "144557.775000", "144557.778000", "144557.781000", "144557.784000", "144557.787000", "144557.790000", "144557.793000", "144557.796000", "144557.799000", "144557.801000", "144557.804000", "144557.807000", "144557.810000", "144557.813000", "144557.816000", "144557.819000", "144557.822000", "144557.825000", "144557.828000", "144557.831000", "144557.833000", "144557.836000", "144557.839000", "144557.842000", "144557.845000", "144557.848000", "144557.851000", "144557.853000", "144557.856000", "144557.859000", "144557.862000", "144637.775000", "144637.778000", "144637.781000", "144637.784000", "144637.787000", "144637.790000", "144637.793000", "144637.796000", "144637.799000", "144637.802000", "144637.818000", "144637.821000", "144637.824000", "144637.827000", "144637.830000", "144637.833000", "144637.836000", "144637.839000", "144637.841000", "144637.844000", "144637.847000", "144637.850000", "144637.853000", "144637.856000", "144637.859000", "144637.862000", "144637.865000", "144637.868000", "144637.871000", "144637.874000", "144637.876000", "144717.775000", "144717.778000", "144717.781000", "144717.784000", "144717.787000", "144717.790000", "144717.793000", "144717.796000", "144717.799000", "144717.802000", "144717.804000", "144717.807000", "144717.810000", "144717.813000", "144717.816000", "144717.819000", "144717.822000", "144717.825000", "144717.828000", "144717.831000", "144717.834000", "144717.837000", "144717.840000", "144717.842000", "144717.846000", "144717.848000", "144717.851000", "144717.854000", "144717.857000", "144717.861000", "144717.864000", "144757.776000", "144757.779000", "144757.782000", "144757.785000", "144757.788000", "144757.791000", "144757.794000", "144757.797000", "144757.800000", "144757.803000", "144757.805000", "144757.808000", "144757.811000", "144757.821000", "144757.824000", "144757.827000", "144757.830000", "144757.833000", "144757.836000", "144757.839000", "144757.841000", "144757.844000", "144757.847000", "144757.850000", "144757.853000", "144757.856000", "144757.859000", "144757.862000", "144757.865000", "144757.868000", "144757.871000", "144757.873000", "144837.775000", "144837.778000", "144837.781000", "144837.784000", "144837.787000", "144837.790000", "144837.793000", "144837.796000", "144837.799000", "144837.802000", "144837.805000", "144837.808000", "144837.810000", "144837.813000", "144837.816000", "144837.819000", "144837.822000", "144837.825000", "144837.828000", "144837.831000", "144837.834000", "144837.837000", "144837.840000", "144837.843000", "144837.846000", "144837.849000", "144837.851000", "144837.854000", "144837.857000", "144837.860000", "144837.863000", "144917.775000", "144917.778000", "144917.781000", "144917.784000", "144917.787000", "144917.790000", "144917.793000", "144917.796000", "144917.799000", "144917.802000", "144917.805000", "144917.808000", "144917.810000", "144917.813000", "144917.816000", "144917.819000", "144917.822000", "144917.825000", "144917.828000", "144917.831000", "144917.834000", "144917.837000", "144917.840000", "144917.843000", "144917.846000", "144917.848000", "144917.851000", "144917.854000", "144917.857000", "144917.860000", "144917.863000", "144937.357000", "144937.361000", "144937.365000", "144937.368000", "144937.381000", "144937.385000", "144937.392000", "144937.402000", "144937.405000", "144937.408000", "144937.412000", "144937.415000", "144937.419000", "144937.422000", "144937.425000", "144937.430000"],
      "InstanceCreationTime": ["144217.780000", "144217.784000", "144217.786000", "144217.789000", "144217.792000", "144217.795000", "144217.798000", "144217.801000", "144217.804000", "144217.807000", "144217.810000", "144217.812000", "144217.815000", "144217.820000", "144217.833000", "144217.835000", "144217.838000", "144217.841000", "144217.844000", "144217.847000", "144217.850000", "144217.853000", "144217.856000", "144217.859000", "144217.870000", "144217.873000", "144217.876000", "144217.879000", "144217.881000", "144257.776000", "144257.779000", "144257.782000", "144257.785000", "144257.788000", "144257.791000", "144257.794000", "144257.797000", "144257.800000", "144257.803000", "144257.805000", "144257.808000", "144257.811000", "144257.814000", "144257.817000", "144257.820000", "144257.823000", "144257.826000", "144257.829000", "144257.831000", "144257.834000", "144257.837000", "144257.840000", "144257.843000", "144257.846000", "144257.849000", "144257.852000", "144257.854000", "144257.857000", "144257.860000", "144257.863000", "144337.775000", "144337.778000", "144337.781000", "144337.784000", "144337.787000", "144337.790000", "144337.793000", "144337.796000", "144337.799000", "144337.802000", "144337.805000", "144337.808000", "144337.811000", "144337.813000", "144337.817000", "144337.819000", "144337.822000", "144337.825000", "144337.828000", "144337.831000", "144337.834000", "144337.837000", "144337.840000", "144337.843000", "144337.845000", "144337.848000", "144337.851000", "144337.854000", "144337.857000", "144337.860000", "144337.863000", "144337.866000", "144417.775000", "144417.778000", "144417.781000", "144417.784000", "144417.787000", "144417.790000", "144417.793000", "144417.796000", "144417.799000", "144417.801000", "144417.804000", "144417.807000", "144417.810000", "144417.813000", "144417.816000", "144417.819000", "144417.822000", "144417.825000", "144417.828000", "144417.830000", "144417.833000", "144417.836000", "144417.839000", "144417.842000", "144417.845000", "144417.848000", "144417.851000", "144417.854000", "144417.857000", "144417.860000", "144417.862000", "144457.775000", "144457.778000", "144457.781000", "144457.784000", "144457.787000", "144457.790000", "144457.793000", "144457.796000", "144457.799000", "144457.802000", "144457.804000", "144457.808000", "144457.810000", "144457.813000", "144457.818000", "144457.821000", "144457.824000", "144457.827000", "144457.830000", "144457.833000", "144457.835000", "144457.838000", "144457.841000", "144457.844000", "144457.847000", "144457.850000", "144457.853000", "144457.856000", "144457.859000", "144457.862000", "144457.864000", "144517.776000", "144517.779000", "144517.782000", "144517.785000", "144517.788000", "144517.791000", "144517.794000", "144517.796000", "144517.800000", "144517.802000", "144517.805000", "144517.808000", "144517.811000", "144517.814000", "144517.817000", "144517.820000", "144557.775000", "144557.778000", "144557.781000", "144557.784000", "144557.787000", "144557.790000", "144557.793000", "144557.796000", "144557.799000", "144557.801000", "144557.804000", "144557.807000", "144557.810000", "144557.813000", "144557.816000", "144557.819000", "144557.822000", "144557.825000", "144557.828000", "144557.831000", "144557.833000", "144557.836000", "144557.839000", "144557.842000", "144557.845000", "144557.848000", "144557.851000", "144557.853000", "144557.856000", "144557.859000", "144557.862000", "144637.775000", "144637.778000", "144637.781000", "144637.784000", "144637.787000", "144637.790000", "144637.793000", "144637.796000", "144637.799000", "144637.802000", "144637.818000", "144637.821000", "144637.824000", "144637.827000", "144637.830000", "144637.833000", "144637.836000", "144637.839000", "144637.841000", "144637.844000", "144637.847000", "144637.850000", "144637.853000", "144637.856000", "144637.859000", "144637.862000", "144637.865000", "144637.868000", "144637.871000", "144637.874000", "144637.876000", "144717.775000", "144717.778000", "144717.781000", "144717.784000", "144717.787000", "144717.790000", "144717.793000", "144717.796000", "144717.799000", "144717.802000", "144717.804000", "144717.807000", "144717.810000", "144717.813000", "144717.816000", "144717.819000", "144717.822000", "144717.825000", "144717.828000", "144717.831000", "144717.834000", "144717.837000", "144717.840000", "144717.842000", "144717.846000", "144717.848000", "144717.851000", "144717.854000", "144717.857000", "144717.861000", "144717.864000", "144757.776000", "144757.779000", "144757.782000", "144757.785000", "144757.788000", "144757.791000", "144757.794000", "144757.797000", "144757.800000", "144757.803000", "144757.805000", "144757.808000", "144757.811000", "144757.821000", "144757.824000", "144757.827000", "144757.830000", "144757.833000", "144757.836000", "144757.839000", "144757.841000", "144757.844000", "144757.847000", "144757.850000", "144757.853000", "144757.856000", "144757.859000", "144757.862000", "144757.865000", "144757.868000", "144757.871000", "144757.873000", "144837.775000", "144837.778000", "144837.781000", "144837.784000", "144837.787000", "144837.790000", "144837.793000", "144837.796000", "144837.799000", "144837.802000", "144837.805000", "144837.808000", "144837.810000", "144837.813000", "144837.816000", "144837.819000", "144837.822000", "144837.825000", "144837.828000", "144837.831000", "144837.834000", "144837.837000", "144837.840000", "144837.843000", "144837.846000", "144837.849000", "144837.851000", "144837.854000", "144837.857000", "144837.860000", "144837.863000", "144917.775000", "144917.778000", "144917.781000", "144917.784000", "144917.787000", "144917.790000", "144917.793000", "144917.796000", "144917.799000", "144917.802000", "144917.805000", "144917.808000", "144917.810000", "144917.813000", "144917.816000", "144917.819000", "144917.822000", "144917.825000", "144917.828000", "144917.831000", "144917.834000", "144917.837000", "144917.840000", "144917.843000", "144917.846000", "144917.848000", "144917.851000", "144917.854000", "144917.857000", "144917.860000", "144917.863000", "144937.357000", "144937.361000", "144937.365000", "144937.368000", "144937.381000", "144937.385000", "144937.392000", "144937.402000", "144937.405000", "144937.408000", "144937.412000", "144937.415000", "144937.419000", "144937.422000", "144937.425000", "144937.430000"],
      "InstanceNumber": [1, 2, 3, 4, 5, 6, 7, 8, 9, 10, 11, 12, 13, 14, 15, 16, 17, 18, 19, 20, 21, 22, 23, 24, 25, 26, 27, 28, 29, 30, 31, 32, 33, 34, 35, 36, 37, 38, 39, 40, 41, 42, 43, 44, 45, 46, 47, 48, 49, 50, 51, 52, 53, 54, 55, 56, 57, 58, 59, 60, 61, 62, 63, 64, 65, 66, 67, 68, 69, 70, 71, 72, 73, 74, 75, 76, 77, 78, 79, 80, 81, 82, 83, 84, 85, 86, 87, 88, 89, 90, 91, 92, 93, 94, 95, 96, 97, 98, 99, 100, 101, 102, 103, 104, 105, 106, 107, 108, 109, 110, 111, 112, 113, 114, 115, 116, 117, 118, 119, 120, 121, 122, 123, 124, 125, 126, 127, 128, 129, 130, 131, 132, 133, 134, 135, 136, 137, 138, 139, 140, 141, 142, 143, 144, 145, 146, 147, 148, 149, 150, 151, 152, 153, 154, 155, 156, 157, 158, 159, 160, 161, 162, 163, 164, 165, 166, 167, 168, 169, 170, 171, 172, 173, 174, 175, 176, 177, 178, 179, 180, 181, 182, 183, 184, 185, 186, 187, 188, 189, 190, 191, 192, 193, 194, 195, 196, 197, 198, 199, 200, 201, 202, 203, 204, 205, 206, 207, 208, 209, 210, 211, 212, 213, 214, 215, 216, 217, 218, 219, 220, 221, 222, 223, 224, 225, 226, 227, 228, 229, 230, 231, 232, 233, 234, 235, 236, 237, 238, 239, 240, 241, 242, 243, 244, 245, 246, 247, 248, 249, 250, 251, 252, 253, 254, 255, 256, 257, 258, 259, 260, 261, 262, 263, 264, 265, 266, 267, 268, 269, 270, 271, 272, 273, 274, 275, 276, 277, 278, 279, 280, 281, 282, 283, 284, 285, 286, 287, 288, 289, 290, 291, 292, 293, 294, 295, 296, 297, 298, 299, 300, 301, 302, 303, 304, 305, 306, 307, 308, 309, 310, 311, 312, 313, 314, 315, 316, 317, 318, 319, 320, 321, 322, 323, 324, 325, 326, 327, 328, 329, 330, 331, 332, 333, 334, 335, 336, 337, 338, 339, 340, 341, 342, 343, 344, 345, 346, 347, 348, 349, 350, 351, 352, 353, 354, 355, 356, 357, 358, 359, 360, 361, 362, 363, 364, 365, 366, 367, 368, 369, 370, 371, 372, 373],
