{
  "AcquisitionMatrixPE": 108,
  "AcquisitionNumber": 1,
  "AcquisitionTime": "14:51:1.575000",
  "BandwidthPerPixelPhaseEncode": 15.964,
  "BaseResolution": 108,
  "BodyPartExamined": "BRAIN",
  "ConsistencyInfo": "N4_VE11C_LATEST_20160120",
  "ConversionSoftware": "dcm2niix",
  "ConversionSoftwareVersion": "v1.0.20180622 GCC6.3.0",
  "DerivedVendorReportedEchoSpacing": 0.000580009,
  "DeviceSerialNumber": "66054",
  "DwellTime": 2.1e-06,
  "EchoTime": 0.031,
  "EchoTrainLength": 95,
  "EffectiveEchoSpacing": 0.000580009,
  "FlipAngle": 64,
  "ImageOrientationPatientDICOM": [0.997857, -0.0217788, 0.0617081, 0.0488033, 0.875882, -0.480051],
  "ImageType": [
    "ORIGINAL",
    "PRIMARY",
    "M",
    "ND",
    "MOSAIC"
],
  "InPlanePhaseEncodingDirectionDICOM": "COL",
  "InstitutionAddress": "Chemin_des_Mines_9_Geneve_District_CH_1211",
  "InstitutionName": "Fondation_Campus_Biotech_Geneva",
  "InstitutionalDepartmentName": "Department",
  "MRAcquisitionType": "2D",
  "MagneticFieldStrength": 3,
  "Manufacturer": "Siemens",
  "ManufacturersModelName": "Prisma",
  "Modality": "MR",
  "MultibandAccelerationFactor": 4,
  "PartialFourier": 0.875,
  "PatientPosition": "HFS",
  "PercentPhaseFOV": 100,
  "PhaseEncodingDirection": "j-",
  "PhaseEncodingSteps": 95,
  "PhaseResolution": 1,
  "PixelBandwidth": 2205,
  "ProcedureStepDescription": "J.DRM_Michael",
  "ProtocolName": "Run2_bold_s4_TR1.28",
  "PulseSequenceDetails": "%SiemensSeq%_ep2d_bold",
  "ReceiveCoilActiveElements": "HC1-7;NC1,2",
  "ReceiveCoilName": "HeadNeck_64",
  "ReconMatrixPE": 108,
  "RepetitionTime": 1.28,
  "SAR": 0.0663655,
  "ScanOptions": "PFP_FS",
  "ScanningSequence": "EP",
  "SequenceName": "_epfid2d1_108",
  "SequenceVariant": "SK",
  "SeriesDescription": "Run2_bold_s4_TR1.28",
  "SeriesNumber": 6,
  "ShimSetting": [-1234, -11634, 6407, 624, 172, -7, -102, 27],
  "SliceThickness": 2,
  "SliceTiming": [0.945, 0, 0.63, 0.08, 0.71, 0.1575, 0.7875, 0.2375, 0.8675, 0.395, 1.025, 0.4725, 1.1025, 0.5525, 1.1825, 0.315, 0.945, 0, 0.63, 0.08, 0.71, 0.1575, 0.7875, 0.2375, 0.8675, 0.395, 1.025, 0.4725, 1.1025, 0.5525, 1.1825, 0.315, 0.945, 0, 0.63, 0.08, 0.71, 0.1575, 0.7875, 0.2375, 0.8675, 0.395, 1.025, 0.4725, 1.1025, 0.5525, 1.1825, 0.315, 0.945, 0, 0.63, 0.08, 0.71, 0.1575, 0.7875, 0.2375, 0.8675, 0.395, 1.025, 0.4725, 1.1025, 0.5525, 1.1825, 0.315],
  "SoftwareVersions": "syngo_MR_E11",
  "SpacingBetweenSlices": 2,
  "StationName": "AWP66054",
  "TaskName": "main",
  "TotalReadoutTime": 0.0620609,
  "TxRefAmp": 237.501,
  "dcmmeta_affine": [
    [-1.986473798751831, 0.09715474396944046, 0.08718815445899963, 100.07919311523438],
    [0.04335590451955795, 1.7436535358428955, -0.9640681147575378, -63.57759475708008],
    [0.12284485995769501, 0.955657958984375, 1.7501345872879028, -100.52230834960938],
    [0.0, 0.0, 0.0, 1.0]
],
  "dcmmeta_reorient_transform": [
    [0.0, -1.0, 0.0, 107.0],
    [1.0, 0.0, 0.0, 0.0],
    [0.0, 0.0, 1.0, 0.0],
    [0.0, 0.0, 0.0, 1.0]
],
  "dcmmeta_shape": [108, 108, 64, 373],
  "dcmmeta_slice_dim": 2,
  "dcmmeta_version": 0.6,
  "global": {
    "const": {
      "AccessionNumber": "",
      "AcquisitionMatrix": [108, 0, 0, 108],
      "AngioFlag": "N",
      "BitsAllocated": 16,
      "BitsStored": 12,
      "BodyPartExamined": "BRAIN",
      "Columns": 864,
      "EchoNumbers": 1,
      "EchoTime": 31.0,
      "EchoTrainLength": 95,
      "FlipAngle": 64.0,
      "HighBit": 11,
      "ImageOrientationPatient": [0.99785659946054, -0.0217787803631, 0.06170811647538, 0.04880331147428, 0.87588175833218, -0.4800514370461],
      "ImagePositionPatient": [-898.08634803521, -765.70583353122, 316.53644676665],
      "ImageType": [
        "ORIGINAL",
        "PRIMARY",
        "M",
        "ND",
        "MOSAIC"
],
      "ImagedNucleus": "1H",
      "ImagingFrequency": 123.257455,
      "InPlanePhaseEncodingDirection": "COL",
      "MRAcquisitionType": "2D",
      "MagneticFieldStrength": 3.0,
      "Manufacturer": "SIEMENS",
      "ManufacturerModelName": "Prisma",
      "Modality": "MR",
      "NumberOfAverages": 1.0,
      "NumberOfPhaseEncodingSteps": 95,
      "PercentPhaseFieldOfView": 100.0,
      "PercentSampling": 100.0,
      "PerformedProcedureStepStartTime": "133648.082000",
      "PhotometricInterpretation": "MONOCHROME2",
      "PixelBandwidth": 2205.0,
      "PixelRepresentation": 0,
      "PixelSpacing": [1.990740776062, 1.990740776062],
      "PositionReferenceIndicator": "",
      "ProtocolName": "Run2_bold_s4_TR1.28",
      "RepetitionTime": 1280.0,
      "Rows": 864,
      "SAR": 0.06636550516334,
      "SamplesPerPixel": 1,
      "ScanOptions": [
        "PFP",
        "FS"
],
      "ScanningSequence": "EP",
      "SequenceName": "*epfid2d1_108",
      "SequenceVariant": "SK",
      "SeriesDescription": "Run2_bold_s4_TR1.28",
      "SeriesNumber": 6,
      "SeriesTime": "145137.847000",
      "SliceLocation": -52.954356696759,
      "SliceThickness": 2.0,
      "SmallestImagePixelValue": 0,
      "SoftwareVersions": "syngo MR E11",
      "SpacingBetweenSlices": 2.0000000113189,
      "SpecificCharacterSet": "ISO_IR 100",
      "StudyID": "1",
      "StudyTime": "133647.980000",
      "TransmitCoilName": "Body",
      "VariableFlipAngleFlag": "N",
      "WindowCenterWidthExplanation": "Algo1",
      "dBdt": 0.0},
    "slices": {}
  },
  "time": {
    "samples": {
      "AcquisitionNumber": [1, 2, 3, 4, 5, 6, 7, 8, 9, 10, 11, 12, 13, 14, 15, 16, 17, 18, 19, 20, 21, 22, 23, 24, 25, 26, 27, 28, 29, 30, 31, 32, 33, 34, 35, 36, 37, 38, 39, 40, 41, 42, 43, 44, 45, 46, 47, 48, 49, 50, 51, 52, 53, 54, 55, 56, 57, 58, 59, 60, 61, 62, 63, 64, 65, 66, 67, 68, 69, 70, 71, 72, 73, 74, 75, 76, 77, 78, 79, 80, 81, 82, 83, 84, 85, 86, 87, 88, 89, 90, 91, 92, 93, 94, 95, 96, 97, 98, 99, 100, 101, 102, 103, 104, 105, 106, 107, 108, 109, 110, 111, 112, 113, 114, 115, 116, 117, 118, 119, 120, 121, 122, 123, 124, 125, 126, 127, 128, 129, 130, 131, 132, 133, 134, 135, 136, 137, 138, 139, 140, 141, 142, 143, 144, 145, 146, 147, 148, 149, 150, 151, 152, 153, 154, 155, 156, 157, 158, 159, 160, 161, 162, 163, 164, 165, 166, 167, 168, 169, 170, 171, 172, 173, 174, 175, 176, 177, 178, 179, 180, 181, 182, 183, 184, 185, 186, 187, 188, 189, 190, 191, 192, 193, 194, 195, 196, 197, 198, 199, 200, 201, 202, 203, 204, 205, 206, 207, 208, 209, 210, 211, 212, 213, 214, 215, 216, 217, 218, 219, 220, 221, 222, 223, 224, 225, 226, 227, 228, 229, 230, 231, 232, 233, 234, 235, 236, 237, 238, 239, 240, 241, 242, 243, 244, 245, 246, 247, 248, 249, 250, 251, 252, 253, 254, 255, 256, 257, 258, 259, 260, 261, 262, 263, 264, 265, 266, 267, 268, 269, 270, 271, 272, 273, 274, 275, 276, 277, 278, 279, 280, 281, 282, 283, 284, 285, 286, 287, 288, 289, 290, 291, 292, 293, 294, 295, 296, 297, 298, 299, 300, 301, 302, 303, 304, 305, 306, 307, 308, 309, 310, 311, 312, 313, 314, 315, 316, 317, 318, 319, 320, 321, 322, 323, 324, 325, 326, 327, 328, 329, 330, 331, 332, 333, 334, 335, 336, 337, 338, 339, 340, 341, 342, 343, 344, 345, 346, 347, 348, 349, 350, 351, 352, 353, 354, 355, 356, 357, 358, 359, 360, 361, 362, 363, 364, 365, 366, 367, 368, 369, 370, 371, 372, 373],
      "AcquisitionTime": ["145101.575000", "145102.855000", "145104.135000", "145105.415000", "145106.695000", "145107.975000", "145109.255000", "145110.535000", "145111.815000", "145113.095000", "145114.375000", "145115.655000", "145116.935000", "145118.215000", "145119.495000", "145120.775000", "145122.055000", "145123.335000", "145124.615000", "145125.895000", "145127.175000", "145128.455000", "145129.735000", "145131.015000", "145132.295000", "145133.575000", "145134.855000", "145136.135000", "145137.415000", "145138.695000", "145139.975000", "145141.255000", "145142.535000", "145143.815000", "145145.095000", "145146.375000", "145147.655000", "145148.935000", "145150.215000", "145151.495000", "145152.775000", "145154.055000", "145155.335000", "145156.615000", "145157.895000", "145159.175000", "145200.455000", "145201.735000", "145203.015000", "145204.295000", "145205.575000", "145206.855000", "145208.135000", "145209.415000", "145210.695000", "145211.975000", "145213.255000", "145214.535000", "145215.815000", "145217.095000", "145218.375000", "145219.655000", "145220.935000", "145222.215000", "145223.495000", "145224.775000", "145226.055000", "145227.335000", "145228.615000", "145229.895000", "145231.175000", "145232.455000", "145233.735000", "145235.015000", "145236.295000", "145237.575000", "145238.855000", "145240.135000", "145241.415000", "145242.695000", "145243.975000", "145245.255000", "145246.535000", "145247.815000", "145249.095000", "145250.375000", "145251.655000", "145252.935000", "145254.215000", "145255.495000", "145256.775000", "145258.055000", "145259.335000", "145300.615000", "145301.895000", "145303.175000", "145304.455000", "145305.735000", "145307.015000", "145308.295000", "145309.575000", "145310.855000", "145312.135000", "145313.415000", "145314.695000", "145315.975000", "145317.255000", "145318.535000", "145319.815000", "145321.095000", "145322.375000", "145323.655000", "145324.935000", "145326.215000", "145327.495000", "145328.775000", "145330.055000", "145331.335000", "145332.615000", "145333.895000", "145335.175000", "145336.455000", "145337.735000", "145339.015000", "145340.295000", "145341.575000", "145342.855000", "145344.135000", "145345.415000", "145346.695000", "145347.975000", "145349.255000", "145350.535000", "145351.815000", "145353.095000", "145354.375000", "145355.655000", "145356.935000", "145358.215000", "145359.495000", "145400.775000", "145402.055000", "145403.335000", "145404.615000", "145405.895000", "145407.175000", "145408.455000", "145409.735000", "145411.015000", "145412.295000", "145413.575000", "145414.855000", "145416.135000", "145417.415000", "145418.695000", "145419.975000", "145421.255000", "145422.535000", "145423.815000", "145425.095000", "145426.375000", "145427.655000", "145428.935000", "145430.215000", "145431.495000", "145432.775000", "145434.055000", "145435.335000", "145436.615000", "145437.895000", "145439.175000", "145440.455000", "145441.735000", "145443.015000", "145444.295000", "145445.575000", "145446.855000", "145448.135000", "145449.415000", "145450.695000", "145451.975000", "145453.255000", "145454.535000", "145455.815000", "145457.095000", "145458.375000", "145459.655000", "145500.935000", "145502.215000", "145503.495000", "145504.775000", "145506.055000", "145507.335000", "145508.615000", "145509.895000", "145511.175000", "145512.455000", "145513.735000", "145515.015000", "145516.295000", "145517.575000", "145518.855000", "145520.135000", "145521.415000", "145522.695000", "145523.975000", "145525.255000", "145526.535000", "145527.815000", "145529.095000", "145530.375000", "145531.655000", "145532.935000", "145534.215000", "145535.495000", "145536.775000", "145538.055000", "145539.335000", "145540.615000", "145541.895000", "145543.175000", "145544.455000", "145545.735000", "145547.015000", "145548.295000", "145549.575000", "145550.855000", "145552.135000", "145553.415000", "145554.695000", "145555.975000", "145557.255000", "145558.535000", "145559.815000", "145601.095000", "145602.375000", "145603.655000", "145604.935000", "145606.215000", "145607.495000", "145608.775000", "145610.055000", "145611.335000", "145612.615000", "145613.895000", "145615.175000", "145616.455000", "145617.735000", "145619.015000", "145620.295000", "145621.575000", "145622.855000", "145624.135000", "145625.415000", "145626.695000", "145627.975000", "145629.255000", "145630.535000", "145631.815000", "145633.095000", "145634.375000", "145635.655000", "145636.935000", "145638.215000", "145639.495000", "145640.775000", "145642.055000", "145643.335000", "145644.615000", "145645.895000", "145647.175000", "145648.455000", "145649.735000", "145651.015000", "145652.295000", "145653.575000", "145654.855000", "145656.135000", "145657.415000", "145658.695000", "145659.975000", "145701.255000", "145702.535000", "145703.815000", "145705.095000", "145706.375000", "145707.655000", "145708.935000", "145710.215000", "145711.495000", "145712.775000", "145714.055000", "145715.335000", "145716.615000", "145717.895000", "145719.175000", "145720.455000", "145721.735000", "145723.015000", "145724.295000", "145725.575000", "145726.855000", "145728.135000", "145729.415000", "145730.695000", "145731.975000", "145733.255000", "145734.535000", "145735.815000", "145737.095000", "145738.375000", "145739.655000", "145740.935000", "145742.215000", "145743.495000", "145744.775000", "145746.055000", "145747.335000", "145748.615000", "145749.895000", "145751.175000", "145752.455000", "145753.735000", "145755.015000", "145756.295000", "145757.575000", "145758.855000", "145800.135000", "145801.415000", "145802.695000", "145803.975000", "145805.255000", "145806.535000", "145807.815000", "145809.095000", "145810.375000", "145811.655000", "145812.935000", "145814.215000", "145815.495000", "145816.775000", "145818.055000", "145819.335000", "145820.615000", "145821.895000", "145823.175000", "145824.455000", "145825.735000", "145827.015000", "145828.295000", "145829.575000", "145830.855000", "145832.135000", "145833.415000", "145834.695000", "145835.975000", "145837.255000", "145838.535000", "145839.815000", "145841.095000", "145842.375000", "145843.655000", "145844.935000", "145846.215000", "145847.495000", "145848.775000", "145850.055000", "145851.335000", "145852.615000", "145853.895000", "145855.175000", "145856.455000", "145857.735000"],
      "ContentTime": ["145137.851000", "145137.854000", "145137.857000", "145137.860000", "145137.863000", "145137.866000", "145137.869000", "145137.872000", "145137.875000", "145137.878000", "145137.880000", "145137.883000", "145137.886000", "145137.889000", "145137.892000", "145137.895000", "145137.898000", "145137.901000", "145137.904000", "145137.906000", "145137.909000", "145137.912000", "145137.915000", "145137.918000", "145137.921000", "145137.924000", "145137.927000", "145137.929000", "145217.847000", "145217.850000", "145217.853000", "145217.856000", "145217.859000", "145217.861000", "145217.864000", "145217.867000", "145217.870000", "145217.881000", "145217.884000", "145217.887000", "145217.890000", "145217.893000", "145217.896000", "145217.898000", "145217.901000", "145217.904000", "145217.907000", "145217.910000", "145217.913000", "145217.916000", "145217.919000", "145217.922000", "145217.924000", "145217.927000", "145217.930000", "145217.933000", "145217.936000", "145217.939000", "145217.942000", "145257.846000", "145257.853000", "145257.856000", "145257.859000", "145257.862000", "145257.865000", "145257.868000", "145257.870000", "145257.873000", "145257.876000", "145257.879000", "145257.882000", "145257.885000", "145257.888000", "145257.891000", "145257.894000", "145257.897000", "145257.900000", "145257.903000", "145257.905000", "145257.908000", "145257.911000", "145257.914000", "145257.917000", "145257.920000", "145257.923000", "145257.926000", "145257.928000", "145257.931000", "145257.934000", "145257.937000", "145337.846000", "145337.849000", "145337.852000", "145337.854000", "145337.857000", "145337.860000", "145337.863000", "145337.866000", "145337.869000", "145337.872000", "145337.875000", "145337.878000", "145337.881000", "145337.884000", "145337.886000", "145337.889000", "145337.892000", "145337.895000", "145337.898000", "145337.901000", "145337.904000", "145337.907000", "145337.909000", "145337.912000", "145337.915000", "145337.918000", "145337.921000", "145337.924000", "145337.927000", "145337.930000", "145337.932000", "145417.846000", "145417.849000", "145417.852000", "145417.855000", "145417.858000", "145417.861000", "145417.877000", "145417.881000", "145417.885000", "145417.888000", "145417.892000", "145417.895000", "145417.899000", "145417.903000", "145417.906000", "145417.909000", "145417.913000", "145417.916000", "145417.920000", "145417.923000", "145417.926000", "145417.930000", "145417.933000", "145417.936000", "145417.939000", "145417.943000", "145417.946000", "145417.949000", "145417.952000", "145417.955000", "145417.959000", "145417.962000", "145457.846000", "145457.849000", "145457.852000", "145457.855000", "145457.858000", "145457.860000", "145457.863000", "145457.866000", "145457.869000", "145457.872000", "145457.875000", "145457.878000", "145457.881000", "145457.884000", "145457.886000", "145457.889000", "145457.892000", "145457.895000", "145457.898000", "145457.901000", "145457.904000", "145457.907000", "145457.910000", "145457.913000", "145457.915000", "145457.918000", "145457.921000", "145457.924000", "145457.927000", "145457.930000", "145457.933000", "145517.846000", "145517.849000", "145517.852000", "145517.857000", "145517.860000", "145517.863000", "145517.866000", "145517.869000", "145517.872000", "145517.875000", "145517.878000", "145517.880000", "145517.884000", "145517.886000", "145517.889000", "145557.846000", "145557.849000", "145557.852000", "145557.855000", "145557.858000", "145557.861000", "145557.864000", "145557.867000", "145557.869000", "145557.872000", "145557.875000", "145557.878000", "145557.881000", "145557.884000", "145557.886000", "145557.889000", "145557.892000", "145557.895000", "145557.898000", "145557.901000", "145557.904000", "145557.907000", "145557.910000", "145557.913000", "145557.915000", "145557.918000", "145557.921000", "145557.924000", "145557.927000", "145557.930000", "145557.933000", "145557.936000", "145637.846000", "145637.849000", "145637.852000", "145637.855000", "145637.858000", "145637.861000", "145637.864000", "145637.866000", "145637.869000", "145637.872000", "145637.875000", "145637.878000", "145637.881000", "145637.884000", "145637.887000", "145637.890000", "145637.892000", "145637.895000", "145637.898000", "145637.901000", "145637.904000", "145637.907000", "145637.910000", "145637.912000", "145637.915000", "145637.918000", "145637.921000", "145637.924000", "145637.927000", "145637.930000", "145637.933000", "145717.846000", "145717.849000", "145717.852000", "145717.855000", "145717.858000", "145717.861000", "145717.864000", "145717.867000", "145717.870000", "145717.873000", "145717.875000", "145717.878000", "145717.881000", "145717.884000", "145717.887000", "145717.890000", "145717.893000", "145717.896000", "145717.899000", "145717.901000", "145717.904000", "145717.907000", "145717.910000", "145717.913000", "145717.916000", "145717.919000", "145717.922000", "145717.924000", "145717.927000", "145717.930000", "145717.933000", "145757.846000", "145757.849000", "145757.852000", "145757.855000", "145757.858000", "145757.861000", "145757.864000", "145757.867000", "145757.870000", "145757.873000", "145757.876000", "145757.878000", "145757.881000", "145757.896000", "145757.899000", "145757.902000", "145757.905000", "145757.908000", "145757.911000", "145757.914000", "145757.916000", "145757.919000", "145757.922000", "145757.925000", "145757.928000", "145757.931000", "145757.934000", "145757.937000", "145757.940000", "145757.943000", "145757.945000", "145837.846000", "145837.849000", "145837.852000", "145837.855000", "145837.858000", "145837.861000", "145837.863000", "145837.866000", "145837.869000", "145837.872000", "145837.875000", "145837.878000", "145837.881000", "145837.884000", "145837.887000", "145837.890000", "145837.893000", "145837.895000", "145837.898000", "145837.901000", "145837.904000", "145837.907000", "145837.910000", "145837.913000", "145837.920000", "145837.923000", "145837.926000", "145837.928000", "145837.931000", "145837.934000", "145837.937000", "145837.940000", "145859.262000", "145859.266000", "145859.269000", "145859.272000", "145859.276000", "145859.279000", "145859.283000", "145859.286000", "145859.290000", "145859.293000", "145859.297000", "145859.300000", "145859.303000", "145859.306000", "145859.310000", "145859.314000", "145859.317000"],
      "InstanceCreationTime": ["145137.851000", "145137.854000", "145137.857000", "145137.860000", "145137.863000", "145137.866000", "145137.869000", "145137.872000", "145137.875000", "145137.878000", "145137.880000", "145137.883000", "145137.886000", "145137.889000", "145137.892000", "145137.895000", "145137.898000", "145137.901000", "145137.904000", "145137.906000", "145137.909000", "145137.912000", "145137.915000", "145137.918000", "145137.921000", "145137.924000", "145137.927000", "145137.929000", "145217.847000", "145217.850000", "145217.853000", "145217.856000", "145217.859000", "145217.861000", "145217.864000", "145217.867000", "145217.870000", "145217.881000", "145217.884000", "145217.887000", "145217.890000", "145217.893000", "145217.896000", "145217.898000", "145217.901000", "145217.904000", "145217.907000", "145217.910000", "145217.913000", "145217.916000", "145217.919000", "145217.922000", "145217.924000", "145217.927000", "145217.930000", "145217.933000", "145217.936000", "145217.939000", "145217.942000", "145257.846000", "145257.853000", "145257.856000", "145257.859000", "145257.862000", "145257.865000", "145257.868000", "145257.870000", "145257.873000", "145257.876000", "145257.879000", "145257.882000", "145257.885000", "145257.888000", "145257.891000", "145257.894000", "145257.897000", "145257.900000", "145257.903000", "145257.905000", "145257.908000", "145257.911000", "145257.914000", "145257.917000", "145257.920000", "145257.923000", "145257.926000", "145257.928000", "145257.931000", "145257.934000", "145257.937000", "145337.846000", "145337.849000", "145337.852000", "145337.854000", "145337.857000", "145337.860000", "145337.863000", "145337.866000", "145337.869000", "145337.872000", "145337.875000", "145337.878000", "145337.881000", "145337.884000", "145337.886000", "145337.889000", "145337.892000", "145337.895000", "145337.898000", "145337.901000", "145337.904000", "145337.907000", "145337.909000", "145337.912000", "145337.915000", "145337.918000", "145337.921000", "145337.924000", "145337.927000", "145337.930000", "145337.932000", "145417.846000", "145417.849000", "145417.852000", "145417.855000", "145417.858000", "145417.861000", "145417.877000", "145417.881000", "145417.885000", "145417.888000", "145417.892000", "145417.895000", "145417.899000", "145417.903000", "145417.906000", "145417.909000", "145417.913000", "145417.916000", "145417.920000", "145417.923000", "145417.926000", "145417.930000", "145417.933000", "145417.936000", "145417.939000", "145417.943000", "145417.946000", "145417.949000", "145417.952000", "145417.955000", "145417.959000", "145417.962000", "145457.846000", "145457.849000", "145457.852000", "145457.855000", "145457.858000", "145457.860000", "145457.863000", "145457.866000", "145457.869000", "145457.872000", "145457.875000", "145457.878000", "145457.881000", "145457.884000", "145457.886000", "145457.889000", "145457.892000", "145457.895000", "145457.898000", "145457.901000", "145457.904000", "145457.907000", "145457.910000", "145457.913000", "145457.915000", "145457.918000", "145457.921000", "145457.924000", "145457.927000", "145457.930000", "145457.933000", "145517.846000", "145517.849000", "145517.852000", "145517.857000", "145517.860000", "145517.863000", "145517.866000", "145517.869000", "145517.872000", "145517.875000", "145517.878000", "145517.880000", "145517.884000", "145517.886000", "145517.889000", "145557.846000", "145557.849000", "145557.852000", "145557.855000", "145557.858000", "145557.861000", "145557.864000", "145557.867000", "145557.869000", "145557.872000", "145557.875000", "145557.878000", "145557.881000", "145557.884000", "145557.886000", "145557.889000", "145557.892000", "145557.895000", "145557.898000", "145557.901000", "145557.904000", "145557.907000", "145557.910000", "145557.913000", "145557.915000", "145557.918000", "145557.921000", "145557.924000", "145557.927000", "145557.930000", "145557.933000", "145557.936000", "145637.846000", "145637.849000", "145637.852000", "145637.855000", "145637.858000", "145637.861000", "145637.864000", "145637.866000", "145637.869000", "145637.872000", "145637.875000", "145637.878000", "145637.881000", "145637.884000", "145637.887000", "145637.890000", "145637.892000", "145637.895000", "145637.898000", "145637.901000", "145637.904000", "145637.907000", "145637.910000", "145637.912000", "145637.915000", "145637.918000", "145637.921000", "145637.924000", "145637.927000", "145637.930000", "145637.933000", "145717.846000", "145717.849000", "145717.852000", "145717.855000", "145717.858000", "145717.861000", "145717.864000", "145717.867000", "145717.870000", "145717.873000", "145717.875000", "145717.878000", "145717.881000", "145717.884000", "145717.887000", "145717.890000", "145717.893000", "145717.896000", "145717.899000", "145717.901000", "145717.904000", "145717.907000", "145717.910000", "145717.913000", "145717.916000", "145717.919000", "145717.922000", "145717.924000", "145717.927000", "145717.930000", "145717.933000", "145757.846000", "145757.849000", "145757.852000", "145757.855000", "145757.858000", "145757.861000", "145757.864000", "145757.867000", "145757.870000", "145757.873000", "145757.876000", "145757.878000", "145757.881000", "145757.896000", "145757.899000", "145757.902000", "145757.905000", "145757.908000", "145757.911000", "145757.914000", "145757.916000", "145757.919000", "145757.922000", "145757.925000", "145757.928000", "145757.931000", "145757.934000", "145757.937000", "145757.940000", "145757.943000", "145757.945000", "145837.846000", "145837.849000", "145837.852000", "145837.855000", "145837.858000", "145837.861000", "145837.863000", "145837.866000", "145837.869000", "145837.872000", "145837.875000", "145837.878000", "145837.881000", "145837.884000", "145837.887000", "145837.890000", "145837.893000", "145837.895000", "145837.898000", "145837.901000", "145837.904000", "145837.907000", "145837.910000", "145837.913000", "145837.920000", "145837.923000", "145837.926000", "145837.928000", "145837.931000", "145837.934000", "145837.937000", "145837.940000", "145859.262000", "145859.266000", "145859.269000", "145859.272000", "145859.276000", "145859.279000", "145859.283000", "145859.286000", "145859.290000", "145859.293000", "145859.297000", "145859.300000", "145859.303000", "145859.306000", "145859.310000", "145859.314000", "145859.317000"],
      "InstanceNumber": [1, 2, 3, 4, 5, 6, 7, 8, 9, 10, 11, 12, 13, 14, 15, 16, 17, 18, 19, 20, 21, 22, 23, 24, 25, 26, 27, 28, 29, 30, 31, 32, 33, 34, 35, 36, 37, 38, 39, 40, 41, 42, 43, 44, 45, 46, 47, 48, 49, 50, 51, 52, 53, 54, 55, 56, 57, 58, 59, 60, 61, 62, 63, 64, 65, 66, 67, 68, 69, 70, 71, 72, 73, 74, 75, 76, 77, 78, 79, 80, 81, 82, 83, 84, 85, 86, 87, 88, 89, 90, 91, 92, 93, 94, 95, 96, 97, 98, 99, 100, 101, 102, 103, 104, 105, 106, 107, 108, 109, 110, 111, 112, 113, 114, 115, 116, 117, 118, 119, 120, 121, 122, 123, 124, 125, 126, 127, 128, 129, 130, 131, 132, 133, 134, 135, 136, 137, 138, 139, 140, 141, 142, 143, 144, 145, 146, 147, 148, 149, 150, 151, 152, 153, 154, 155, 156, 157, 158, 159, 160, 161, 162, 163, 164, 165, 166, 167, 168, 169, 170, 171, 172, 173, 174, 175, 176, 177, 178, 179, 180, 181, 182, 183, 184, 185, 186, 187, 188, 189, 190, 191, 192, 193, 194, 195, 196, 197, 198, 199, 200, 201, 202, 203, 204, 205, 206, 207, 208, 209, 210, 211, 212, 213, 214, 215, 216, 217, 218, 219, 220, 221, 222, 223, 224, 225, 226, 227, 228, 229, 230, 231, 232, 233, 234, 235, 236, 237, 238, 239, 240, 241, 242, 243, 244, 245, 246, 247, 248, 249, 250, 251, 252, 253, 254, 255, 256, 257, 258, 259, 260, 261, 262, 263, 264, 265, 266, 267, 268, 269, 270, 271, 272, 273, 274, 275, 276, 277, 278, 279, 280, 281, 282, 283, 284, 285, 286, 287, 288, 289, 290, 291, 292, 293, 294, 295, 296, 297, 298, 299, 300, 301, 302, 303, 304, 305, 306, 307, 308, 309, 310, 311, 312, 313, 314, 315, 316, 317, 318, 319, 320, 321, 322, 323, 324, 325, 326, 327, 328, 329, 330, 331, 332, 333, 334, 335, 336, 337, 338, 339, 340, 341, 342, 343, 344, 345, 346, 347, 348, 349, 350, 351, 352, 353, 354, 355, 356, 357, 358, 359, 360, 361, 362, 363, 364, 365, 366, 367, 368, 369, 370, 371, 372, 373],
