{
  "AcquisitionMatrixPE": 108,
  "AcquisitionNumber": 1,
  "AcquisitionTime": "11:34:22.345000",
  "BandwidthPerPixelPhaseEncode": 15.964,
  "BaseResolution": 108,
  "BodyPartExamined": "BRAIN",
  "ConsistencyInfo": "N4_VE11C_LATEST_20160120",
  "ConversionSoftware": "dcm2niix",
  "ConversionSoftwareVersion": "v1.0.20180622 GCC6.3.0",
  "DerivedVendorReportedEchoSpacing": 0.000580009,
  "DeviceSerialNumber": "66054",
  "DwellTime": 2.1e-06,
  "EchoTime": 0.031,
  "EchoTrainLength": 95,
  "EffectiveEchoSpacing": 0.000580009,
  "FlipAngle": 64,
  "ImageOrientationPatientDICOM": [0.999688, -0.0240376, 0.00677748, 0.0244318, 0.88498, -0.464988],
  "ImageType": [
    "ORIGINAL",
    "PRIMARY",
    "M",
    "ND",
    "MOSAIC"
],
  "InPlanePhaseEncodingDirectionDICOM": "COL",
  "InstitutionAddress": "Chemin_des_Mines_9_Geneve_District_CH_1211",
  "InstitutionName": "Fondation_Campus_Biotech_Geneva",
  "InstitutionalDepartmentName": "Department",
  "MRAcquisitionType": "2D",
  "MagneticFieldStrength": 3,
  "Manufacturer": "Siemens",
  "ManufacturersModelName": "Prisma",
  "Modality": "MR",
  "MultibandAccelerationFactor": 4,
  "PartialFourier": 0.875,
  "PatientPosition": "HFS",
  "PercentPhaseFOV": 100,
  "PhaseEncodingDirection": "j-",
  "PhaseEncodingSteps": 95,
  "PhaseResolution": 1,
  "PixelBandwidth": 2205,
  "ProcedureStepDescription": "J.DRM_Michael",
  "ProtocolName": "Run2_bold_s4_TR1.28",
  "PulseSequenceDetails": "%SiemensSeq%_ep2d_bold",
  "ReceiveCoilActiveElements": "HC1-7;NC1,2",
  "ReceiveCoilName": "HeadNeck_64",
  "ReconMatrixPE": 108,
  "RepetitionTime": 1.28,
  "SAR": 0.0656048,
  "ScanOptions": "PFP_FS",
  "ScanningSequence": "EP",
  "SequenceName": "_epfid2d1_108",
  "SequenceVariant": "SK",
  "SeriesDescription": "Run2_bold_s4_TR1.28",
  "SeriesNumber": 6,
  "ShimSetting": [-1261, -11620, 6445, 429, 139, -94, -47, 24],
  "SliceThickness": 2,
  "SliceTiming": [0.945, 0, 0.63, 0.0775, 0.7075, 0.1575, 0.7875, 0.235, 0.865, 0.3925, 1.0225, 0.4725, 1.1025, 0.55, 1.18, 0.315, 0.945, 0, 0.63, 0.0775, 0.7075, 0.1575, 0.7875, 0.235, 0.865, 0.3925, 1.0225, 0.4725, 1.1025, 0.55, 1.18, 0.315, 0.945, 0, 0.63, 0.0775, 0.7075, 0.1575, 0.7875, 0.235, 0.865, 0.3925, 1.0225, 0.4725, 1.1025, 0.55, 1.18, 0.315, 0.945, 0, 0.63, 0.0775, 0.7075, 0.1575, 0.7875, 0.235, 0.865, 0.3925, 1.0225, 0.4725, 1.1025, 0.55, 1.18, 0.315],
  "SoftwareVersions": "syngo_MR_E11",
  "SpacingBetweenSlices": 2,
  "StationName": "AWP66054",
  "TaskName": "main",
  "TotalReadoutTime": 0.0620609,
  "TxRefAmp": 259.601,
  "dcmmeta_affine": [
    [-1.9901198148727417, 0.04863745719194412, -0.01035852450877428, 105.16938781738281],
    [0.047852590680122375, 1.7617651224136353, -0.9300176501274109, -69.26219177246094],
    [0.013492203317582607, 0.9256711006164551, 1.770581841468811, -91.74140167236328],
    [0.0, 0.0, 0.0, 1.0]
],
  "dcmmeta_reorient_transform": [
    [0.0, -1.0, 0.0, 107.0],
    [1.0, 0.0, 0.0, 0.0],
    [0.0, 0.0, 1.0, 0.0],
    [0.0, 0.0, 0.0, 1.0]
],
  "dcmmeta_shape": [108, 108, 64, 373],
  "dcmmeta_slice_dim": 2,
  "dcmmeta_version": 0.6,
  "global": {
    "const": {
      "AccessionNumber": "",
      "AcquisitionMatrix": [108, 0, 0, 108],
      "AngioFlag": "N",
      "BitsAllocated": 16,
      "BitsStored": 12,
      "BodyPartExamined": "BRAIN",
      "Columns": 864,
      "EchoNumbers": 1,
      "EchoTime": 31.0,
      "EchoTrainLength": 95,
      "FlipAngle": 64.0,
      "HighBit": 11,
      "ImageOrientationPatient": [0.99968808162804, -0.024037579634, 0.00677747860172, 0.02443183775689, 0.88497965544553, -0.4649882737783],
      "ImagePositionPatient": [-881.02385180944, -767.10559475818, 352.10903559459],
      "ImageType": [
        "ORIGINAL",
        "PRIMARY",
        "M",
        "ND",
        "MOSAIC"
],
      "ImagedNucleus": "1H",
      "ImagingFrequency": 123.25734,
      "InPlanePhaseEncodingDirection": "COL",
      "MRAcquisitionType": "2D",
      "MagneticFieldStrength": 3.0,
      "Manufacturer": "SIEMENS",
      "ManufacturerModelName": "Prisma",
      "Modality": "MR",
      "NumberOfAverages": 1.0,
      "NumberOfPhaseEncodingSteps": 95,
      "PercentPhaseFieldOfView": 100.0,
      "PercentSampling": 100.0,
      "PerformedProcedureStepStartTime": "112135.074000",
      "PhotometricInterpretation": "MONOCHROME2",
      "PixelBandwidth": 2205.0,
      "PixelRepresentation": 0,
      "PixelSpacing": [1.990740776062, 1.990740776062],
      "PositionReferenceIndicator": "",
      "ProtocolName": "Run2_bold_s4_TR1.28",
      "RepetitionTime": 1280.0,
      "Rows": 864,
      "SAR": 0.06560481640429,
      "SamplesPerPixel": 1,
      "ScanOptions": [
        "PFP",
        "FS"
],
      "ScanningSequence": "EP",
      "SequenceName": "*epfid2d1_108",
      "SequenceVariant": "SK",
      "SeriesDescription": "Run2_bold_s4_TR1.28",
      "SeriesNumber": 6,
      "SeriesTime": "113456.974000",
      "SliceLocation": -49.554998331982,
      "SliceThickness": 2.0,
      "SmallestImagePixelValue": 0,
      "SoftwareVersions": "syngo MR E11",
      "SpacingBetweenSlices": 2.0000000160041,
      "SpecificCharacterSet": "ISO_IR 100",
      "StudyID": "1",
      "StudyTime": "112135.014000",
      "TransmitCoilName": "Body",
      "VariableFlipAngleFlag": "N",
      "WindowCenterWidthExplanation": "Algo1",
      "dBdt": 0.0},
    "slices": {}
  },
  "time": {
    "samples": {
      "AcquisitionNumber": [1, 2, 3, 4, 5, 6, 7, 8, 9, 10, 11, 12, 13, 14, 15, 16, 17, 18, 19, 20, 21, 22, 23, 24, 25, 26, 27, 28, 29, 30, 31, 32, 33, 34, 35, 36, 37, 38, 39, 40, 41, 42, 43, 44, 45, 46, 47, 48, 49, 50, 51, 52, 53, 54, 55, 56, 57, 58, 59, 60, 61, 62, 63, 64, 65, 66, 67, 68, 69, 70, 71, 72, 73, 74, 75, 76, 77, 78, 79, 80, 81, 82, 83, 84, 85, 86, 87, 88, 89, 90, 91, 92, 93, 94, 95, 96, 97, 98, 99, 100, 101, 102, 103, 104, 105, 106, 107, 108, 109, 110, 111, 112, 113, 114, 115, 116, 117, 118, 119, 120, 121, 122, 123, 124, 125, 126, 127, 128, 129, 130, 131, 132, 133, 134, 135, 136, 137, 138, 139, 140, 141, 142, 143, 144, 145, 146, 147, 148, 149, 150, 151, 152, 153, 154, 155, 156, 157, 158, 159, 160, 161, 162, 163, 164, 165, 166, 167, 168, 169, 170, 171, 172, 173, 174, 175, 176, 177, 178, 179, 180, 181, 182, 183, 184, 185, 186, 187, 188, 189, 190, 191, 192, 193, 194, 195, 196, 197, 198, 199, 200, 201, 202, 203, 204, 205, 206, 207, 208, 209, 210, 211, 212, 213, 214, 215, 216, 217, 218, 219, 220, 221, 222, 223, 224, 225, 226, 227, 228, 229, 230, 231, 232, 233, 234, 235, 236, 237, 238, 239, 240, 241, 242, 243, 244, 245, 246, 247, 248, 249, 250, 251, 252, 253, 254, 255, 256, 257, 258, 259, 260, 261, 262, 263, 264, 265, 266, 267, 268, 269, 270, 271, 272, 273, 274, 275, 276, 277, 278, 279, 280, 281, 282, 283, 284, 285, 286, 287, 288, 289, 290, 291, 292, 293, 294, 295, 296, 297, 298, 299, 300, 301, 302, 303, 304, 305, 306, 307, 308, 309, 310, 311, 312, 313, 314, 315, 316, 317, 318, 319, 320, 321, 322, 323, 324, 325, 326, 327, 328, 329, 330, 331, 332, 333, 334, 335, 336, 337, 338, 339, 340, 341, 342, 343, 344, 345, 346, 347, 348, 349, 350, 351, 352, 353, 354, 355, 356, 357, 358, 359, 360, 361, 362, 363, 364, 365, 366, 367, 368, 369, 370, 371, 372, 373],
      "AcquisitionTime": ["113422.345000", "113423.625000", "113424.905000", "113426.185000", "113427.465000", "113428.745000", "113430.025000", "113431.305000", "113432.585000", "113433.865000", "113435.145000", "113436.425000", "113437.705000", "113438.985000", "113440.265000", "113441.545000", "113442.825000", "113444.105000", "113445.385000", "113446.665000", "113447.945000", "113449.225000", "113450.505000", "113451.785000", "113453.065000", "113454.345000", "113455.625000", "113456.905000", "113458.185000", "113459.465000", "113500.745000", "113502.025000", "113503.305000", "113504.585000", "113505.865000", "113507.145000", "113508.425000", "113509.705000", "113510.985000", "113512.265000", "113513.545000", "113514.825000", "113516.105000", "113517.385000", "113518.665000", "113519.945000", "113521.225000", "113522.505000", "113523.785000", "113525.065000", "113526.345000", "113527.625000", "113528.905000", "113530.185000", "113531.465000", "113532.745000", "113534.025000", "113535.305000", "113536.585000", "113537.865000", "113539.145000", "113540.425000", "113541.705000", "113542.985000", "113544.265000", "113545.545000", "113546.825000", "113548.105000", "113549.385000", "113550.665000", "113551.945000", "113553.225000", "113554.505000", "113555.785000", "113557.065000", "113558.345000", "113559.625000", "113600.905000", "113602.185000", "113603.465000", "113604.745000", "113606.025000", "113607.305000", "113608.585000", "113609.865000", "113611.145000", "113612.425000", "113613.705000", "113614.985000", "113616.265000", "113617.545000", "113618.825000", "113620.105000", "113621.385000", "113622.665000", "113623.945000", "113625.225000", "113626.505000", "113627.785000", "113629.065000", "113630.345000", "113631.625000", "113632.905000", "113634.185000", "113635.465000", "113636.745000", "113638.025000", "113639.305000", "113640.585000", "113641.865000", "113643.145000", "113644.425000", "113645.705000", "113646.985000", "113648.265000", "113649.545000", "113650.825000", "113652.105000", "113653.385000", "113654.665000", "113655.945000", "113657.225000", "113658.505000", "113659.785000", "113701.065000", "113702.345000", "113703.625000", "113704.905000", "113706.185000", "113707.465000", "113708.745000", "113710.025000", "113711.305000", "113712.585000", "113713.865000", "113715.145000", "113716.425000", "113717.705000", "113718.985000", "113720.265000", "113721.545000", "113722.825000", "113724.105000", "113725.385000", "113726.665000", "113727.945000", "113729.225000", "113730.505000", "113731.785000", "113733.065000", "113734.345000", "113735.625000", "113736.905000", "113738.185000", "113739.465000", "113740.745000", "113742.025000", "113743.305000", "113744.585000", "113745.865000", "113747.145000", "113748.425000", "113749.705000", "113750.985000", "113752.265000", "113753.545000", "113754.825000", "113756.105000", "113757.385000", "113758.665000", "113759.945000", "113801.225000", "113802.505000", "113803.785000", "113805.065000", "113806.345000", "113807.625000", "113808.905000", "113810.185000", "113811.465000", "113812.745000", "113814.025000", "113815.305000", "113816.585000", "113817.865000", "113819.145000", "113820.425000", "113821.705000", "113822.985000", "113824.265000", "113825.545000", "113826.825000", "113828.105000", "113829.385000", "113830.665000", "113831.945000", "113833.225000", "113834.505000", "113835.785000", "113837.065000", "113838.345000", "113839.625000", "113840.905000", "113842.185000", "113843.465000", "113844.745000", "113846.025000", "113847.305000", "113848.585000", "113849.865000", "113851.145000", "113852.425000", "113853.705000", "113854.985000", "113856.265000", "113857.545000", "113858.825000", "113900.105000", "113901.385000", "113902.665000", "113903.945000", "113905.225000", "113906.505000", "113907.785000", "113909.065000", "113910.345000", "113911.625000", "113912.905000", "113914.185000", "113915.465000", "113916.745000", "113918.025000", "113919.305000", "113920.585000", "113921.865000", "113923.145000", "113924.425000", "113925.705000", "113926.985000", "113928.265000", "113929.545000", "113930.825000", "113932.105000", "113933.385000", "113934.665000", "113935.945000", "113937.225000", "113938.505000", "113939.785000", "113941.065000", "113942.345000", "113943.625000", "113944.905000", "113946.185000", "113947.465000", "113948.745000", "113950.025000", "113951.305000", "113952.585000", "113953.865000", "113955.145000", "113956.425000", "113957.705000", "113958.985000", "114000.265000", "114001.545000", "114002.825000", "114004.105000", "114005.385000", "114006.665000", "114007.945000", "114009.225000", "114010.505000", "114011.785000", "114013.065000", "114014.345000", "114015.625000", "114016.905000", "114018.185000", "114019.465000", "114020.745000", "114022.025000", "114023.305000", "114024.585000", "114025.865000", "114027.145000", "114028.425000", "114029.705000", "114030.985000", "114032.265000", "114033.545000", "114034.825000", "114036.105000", "114037.385000", "114038.665000", "114039.945000", "114041.225000", "114042.505000", "114043.785000", "114045.065000", "114046.345000", "114047.625000", "114048.905000", "114050.185000", "114051.465000", "114052.745000", "114054.025000", "114055.305000", "114056.585000", "114057.865000", "114059.145000", "114100.425000", "114101.705000", "114102.985000", "114104.265000", "114105.545000", "114106.825000", "114108.105000", "114109.385000", "114110.665000", "114111.945000", "114113.225000", "114114.505000", "114115.785000", "114117.065000", "114118.345000", "114119.625000", "114120.905000", "114122.185000", "114123.465000", "114124.745000", "114126.025000", "114127.305000", "114128.585000", "114129.865000", "114131.145000", "114132.425000", "114133.705000", "114134.985000", "114136.265000", "114137.545000", "114138.825000", "114140.105000", "114141.385000", "114142.665000", "114143.945000", "114145.225000", "114146.505000", "114147.785000", "114149.065000", "114150.345000", "114151.625000", "114152.905000", "114154.185000", "114155.465000", "114156.745000", "114158.025000", "114159.305000", "114200.585000", "114201.865000", "114203.145000", "114204.425000", "114205.705000", "114206.985000", "114208.265000", "114209.545000", "114210.825000", "114212.105000", "114213.385000", "114214.665000", "114215.945000", "114217.225000", "114218.505000"],
      "ContentTime": ["113456.978000", "113457.001000", "113457.004000", "113457.007000", "113457.013000", "113457.016000", "113457.019000", "113457.022000", "113457.024000", "113457.027000", "113457.030000", "113457.033000", "113457.036000", "113457.039000", "113457.042000", "113457.045000", "113457.057000", "113457.060000", "113457.062000", "113457.065000", "113457.068000", "113457.071000", "113457.074000", "113457.077000", "113457.080000", "113457.083000", "113536.959000", "113536.962000", "113536.977000", "113536.980000", "113536.983000", "113536.986000", "113536.989000", "113536.992000", "113536.995000", "113536.998000", "113537.001000", "113537.004000", "113537.007000", "113537.010000", "113537.014000", "113537.017000", "113537.020000", "113537.022000", "113537.025000", "113537.028000", "113537.031000", "113537.034000", "113537.037000", "113537.040000", "113537.042000", "113537.045000", "113537.048000", "113537.051000", "113537.063000", "113537.066000", "113537.069000", "113537.072000", "113616.958000", "113616.961000", "113616.964000", "113616.967000", "113616.969000", "113616.972000", "113616.975000", "113616.978000", "113616.981000", "113616.984000", "113616.987000", "113616.990000", "113616.993000", "113616.995000", "113616.998000", "113617.002000", "113617.005000", "113617.008000", "113617.011000", "113617.014000", "113617.017000", "113617.020000", "113617.022000", "113617.025000", "113617.028000", "113617.031000", "113617.034000", "113617.037000", "113617.039000", "113617.042000", "113617.045000", "113656.959000", "113656.962000", "113656.965000", "113656.975000", "113656.978000", "113656.981000", "113656.984000", "113656.987000", "113656.990000", "113656.993000", "113656.995000", "113656.998000", "113657.001000", "113657.004000", "113657.007000", "113657.010000", "113657.012000", "113657.015000", "113657.018000", "113657.021000", "113657.024000", "113657.027000", "113657.030000", "113657.033000", "113657.035000", "113657.038000", "113657.041000", "113657.044000", "113657.047000", "113657.050000", "113657.053000", "113736.959000", "113736.962000", "113736.965000", "113736.968000", "113736.971000", "113736.973000", "113736.976000", "113736.979000", "113736.982000", "113736.985000", "113736.988000", "113736.991000", "113736.994000", "113736.997000", "113737.001000", "113737.003000", "113737.006000", "113737.009000", "113737.012000", "113737.015000", "113737.018000", "113737.021000", "113737.024000", "113737.026000", "113737.029000", "113737.032000", "113737.035000", "113737.038000", "113737.041000", "113737.044000", "113737.047000", "113816.959000", "113816.962000", "113816.965000", "113816.968000", "113816.970000", "113816.973000", "113816.976000", "113816.979000", "113816.982000", "113816.985000", "113816.988000", "113816.991000", "113816.994000", "113816.996000", "113817.000000", "113817.003000", "113817.006000", "113817.009000", "113817.012000", "113817.015000", "113817.018000", "113817.021000", "113817.024000", "113817.026000", "113817.029000", "113817.032000", "113817.035000", "113817.052000", "113817.055000", "113817.057000", "113817.060000", "113817.063000", "113856.958000", "113856.961000", "113856.964000", "113856.967000", "113856.970000", "113856.972000", "113856.975000", "113856.978000", "113856.981000", "113856.984000", "113856.987000", "113856.990000", "113856.993000", "113856.996000", "113856.998000", "113857.002000", "113857.005000", "113857.008000", "113857.011000", "113857.014000", "113857.017000", "113857.020000", "113857.023000", "113857.025000", "113857.028000", "113857.031000", "113857.034000", "113857.037000", "113857.040000", "113857.043000", "113857.045000", "113936.959000", "113936.962000", "113936.965000", "113936.968000", "113936.970000", "113936.973000", "113936.976000", "113936.979000", "113936.982000", "113936.985000", "113936.988000", "113936.991000", "113936.994000", "113936.997000", "113937.000000", "113937.003000", "113937.006000", "113937.009000", "113937.012000", "113937.015000", "113937.018000", "113937.021000", "113937.024000", "113937.027000", "113937.030000", "113937.032000", "113937.035000", "113937.038000", "113937.041000", "113937.044000", "113937.047000", "114016.959000", "114016.962000", "114016.965000", "114016.968000", "114016.971000", "114016.973000", "114016.976000", "114016.979000", "114016.982000", "114016.985000", "114016.988000", "114016.991000", "114016.994000", "114016.997000", "114017.000000", "114017.003000", "114017.006000", "114017.009000", "114017.024000", "114017.027000", "114017.029000", "114017.032000", "114017.035000", "114017.038000", "114017.041000", "114017.044000", "114017.047000", "114017.050000", "114017.053000", "114017.055000", "114017.058000", "114056.958000", "114056.961000", "114056.964000", "114056.967000", "114056.970000", "114056.973000", "114056.975000", "114056.978000", "114056.981000", "114056.984000", "114056.987000", "114056.990000", "114056.993000", "114056.996000", "114057.000000", "114057.002000", "114057.005000", "114057.008000", "114057.011000", "114057.014000", "114057.017000", "114057.020000", "114057.023000", "114057.026000", "114057.029000", "114057.032000", "114057.034000", "114057.037000", "114057.040000", "114057.043000", "114057.046000", "114057.049000", "114136.959000", "114136.962000", "114136.965000", "114136.968000", "114136.971000", "114136.974000", "114136.977000", "114136.979000", "114136.982000", "114136.985000", "114136.988000", "114136.991000", "114136.994000", "114136.997000", "114137.000000", "114137.002000", "114137.005000", "114137.008000", "114137.011000", "114137.014000", "114137.017000", "114137.020000", "114137.023000", "114137.025000", "114137.028000", "114137.031000", "114137.034000", "114137.037000", "114137.040000", "114137.043000", "114137.046000", "114216.959000", "114216.962000", "114216.965000", "114216.968000", "114216.971000", "114216.974000", "114216.977000", "114216.980000", "114216.994000", "114216.997000", "114217.000000", "114217.003000", "114217.006000", "114217.009000", "114217.012000", "114217.015000", "114217.018000", "114217.020000", "114217.024000", "114217.026000", "114217.029000", "114217.032000", "114217.035000", "114217.038000", "114217.041000", "114217.044000", "114217.047000", "114217.049000", "114217.052000", "114217.056000", "114217.060000", "114220.118000", "114220.122000", "114220.125000"],
      "InstanceCreationTime": ["113456.978000", "113457.001000", "113457.004000", "113457.007000", "113457.013000", "113457.016000", "113457.019000", "113457.022000", "113457.024000", "113457.027000", "113457.030000", "113457.033000", "113457.036000", "113457.039000", "113457.042000", "113457.045000", "113457.057000", "113457.060000", "113457.062000", "113457.065000", "113457.068000", "113457.071000", "113457.074000", "113457.077000", "113457.080000", "113457.083000", "113536.959000", "113536.962000", "113536.977000", "113536.980000", "113536.983000", "113536.986000", "113536.989000", "113536.992000", "113536.995000", "113536.998000", "113537.001000", "113537.004000", "113537.007000", "113537.010000", "113537.014000", "113537.017000", "113537.020000", "113537.022000", "113537.025000", "113537.028000", "113537.031000", "113537.034000", "113537.037000", "113537.040000", "113537.042000", "113537.045000", "113537.048000", "113537.051000", "113537.063000", "113537.066000", "113537.069000", "113537.072000", "113616.958000", "113616.961000", "113616.964000", "113616.967000", "113616.969000", "113616.972000", "113616.975000", "113616.978000", "113616.981000", "113616.984000", "113616.987000", "113616.990000", "113616.993000", "113616.995000", "113616.998000", "113617.002000", "113617.005000", "113617.008000", "113617.011000", "113617.014000", "113617.017000", "113617.020000", "113617.022000", "113617.025000", "113617.028000", "113617.031000", "113617.034000", "113617.037000", "113617.039000", "113617.042000", "113617.045000", "113656.959000", "113656.962000", "113656.965000", "113656.975000", "113656.978000", "113656.981000", "113656.984000", "113656.987000", "113656.990000", "113656.993000", "113656.995000", "113656.998000", "113657.001000", "113657.004000", "113657.007000", "113657.010000", "113657.012000", "113657.015000", "113657.018000", "113657.021000", "113657.024000", "113657.027000", "113657.030000", "113657.033000", "113657.035000", "113657.038000", "113657.041000", "113657.044000", "113657.047000", "113657.050000", "113657.053000", "113736.959000", "113736.962000", "113736.965000", "113736.968000", "113736.971000", "113736.973000", "113736.976000", "113736.979000", "113736.982000", "113736.985000", "113736.988000", "113736.991000", "113736.994000", "113736.997000", "113737.001000", "113737.003000", "113737.006000", "113737.009000", "113737.012000", "113737.015000", "113737.018000", "113737.021000", "113737.024000", "113737.026000", "113737.029000", "113737.032000", "113737.035000", "113737.038000", "113737.041000", "113737.044000", "113737.047000", "113816.959000", "113816.962000", "113816.965000", "113816.968000", "113816.970000", "113816.973000", "113816.976000", "113816.979000", "113816.982000", "113816.985000", "113816.988000", "113816.991000", "113816.994000", "113816.996000", "113817.000000", "113817.003000", "113817.006000", "113817.009000", "113817.012000", "113817.015000", "113817.018000", "113817.021000", "113817.024000", "113817.026000", "113817.029000", "113817.032000", "113817.035000", "113817.052000", "113817.055000", "113817.057000", "113817.060000", "113817.063000", "113856.958000", "113856.961000", "113856.964000", "113856.967000", "113856.970000", "113856.972000", "113856.975000", "113856.978000", "113856.981000", "113856.984000", "113856.987000", "113856.990000", "113856.993000", "113856.996000", "113856.998000", "113857.002000", "113857.005000", "113857.008000", "113857.011000", "113857.014000", "113857.017000", "113857.020000", "113857.023000", "113857.025000", "113857.028000", "113857.031000", "113857.034000", "113857.037000", "113857.040000", "113857.043000", "113857.045000", "113936.959000", "113936.962000", "113936.965000", "113936.968000", "113936.970000", "113936.973000", "113936.976000", "113936.979000", "113936.982000", "113936.985000", "113936.988000", "113936.991000", "113936.994000", "113936.997000", "113937.000000", "113937.003000", "113937.006000", "113937.009000", "113937.012000", "113937.015000", "113937.018000", "113937.021000", "113937.024000", "113937.027000", "113937.030000", "113937.032000", "113937.035000", "113937.038000", "113937.041000", "113937.044000", "113937.047000", "114016.959000", "114016.962000", "114016.965000", "114016.968000", "114016.971000", "114016.973000", "114016.976000", "114016.979000", "114016.982000", "114016.985000", "114016.988000", "114016.991000", "114016.994000", "114016.997000", "114017.000000", "114017.003000", "114017.006000", "114017.009000", "114017.024000", "114017.027000", "114017.029000", "114017.032000", "114017.035000", "114017.038000", "114017.041000", "114017.044000", "114017.047000", "114017.050000", "114017.053000", "114017.055000", "114017.058000", "114056.958000", "114056.961000", "114056.964000", "114056.967000", "114056.970000", "114056.973000", "114056.975000", "114056.978000", "114056.981000", "114056.984000", "114056.987000", "114056.990000", "114056.993000", "114056.996000", "114057.000000", "114057.002000", "114057.005000", "114057.008000", "114057.011000", "114057.014000", "114057.017000", "114057.020000", "114057.023000", "114057.026000", "114057.029000", "114057.032000", "114057.034000", "114057.037000", "114057.040000", "114057.043000", "114057.046000", "114057.049000", "114136.959000", "114136.962000", "114136.965000", "114136.968000", "114136.971000", "114136.974000", "114136.977000", "114136.979000", "114136.982000", "114136.985000", "114136.988000", "114136.991000", "114136.994000", "114136.997000", "114137.000000", "114137.002000", "114137.005000", "114137.008000", "114137.011000", "114137.014000", "114137.017000", "114137.020000", "114137.023000", "114137.025000", "114137.028000", "114137.031000", "114137.034000", "114137.037000", "114137.040000", "114137.043000", "114137.046000", "114216.959000", "114216.962000", "114216.965000", "114216.968000", "114216.971000", "114216.974000", "114216.977000", "114216.980000", "114216.994000", "114216.997000", "114217.000000", "114217.003000", "114217.006000", "114217.009000", "114217.012000", "114217.015000", "114217.018000", "114217.020000", "114217.024000", "114217.026000", "114217.029000", "114217.032000", "114217.035000", "114217.038000", "114217.041000", "114217.044000", "114217.047000", "114217.049000", "114217.052000", "114217.056000", "114217.060000", "114220.118000", "114220.122000", "114220.125000"],
      "InstanceNumber": [1, 2, 3, 4, 5, 6, 7, 8, 9, 10, 11, 12, 13, 14, 15, 16, 17, 18, 19, 20, 21, 22, 23, 24, 25, 26, 27, 28, 29, 30, 31, 32, 33, 34, 35, 36, 37, 38, 39, 40, 41, 42, 43, 44, 45, 46, 47, 48, 49, 50, 51, 52, 53, 54, 55, 56, 57, 58, 59, 60, 61, 62, 63, 64, 65, 66, 67, 68, 69, 70, 71, 72, 73, 74, 75, 76, 77, 78, 79, 80, 81, 82, 83, 84, 85, 86, 87, 88, 89, 90, 91, 92, 93, 94, 95, 96, 97, 98, 99, 100, 101, 102, 103, 104, 105, 106, 107, 108, 109, 110, 111, 112, 113, 114, 115, 116, 117, 118, 119, 120, 121, 122, 123, 124, 125, 126, 127, 128, 129, 130, 131, 132, 133, 134, 135, 136, 137, 138, 139, 140, 141, 142, 143, 144, 145, 146, 147, 148, 149, 150, 151, 152, 153, 154, 155, 156, 157, 158, 159, 160, 161, 162, 163, 164, 165, 166, 167, 168, 169, 170, 171, 172, 173, 174, 175, 176, 177, 178, 179, 180, 181, 182, 183, 184, 185, 186, 187, 188, 189, 190, 191, 192, 193, 194, 195, 196, 197, 198, 199, 200, 201, 202, 203, 204, 205, 206, 207, 208, 209, 210, 211, 212, 213, 214, 215, 216, 217, 218, 219, 220, 221, 222, 223, 224, 225, 226, 227, 228, 229, 230, 231, 232, 233, 234, 235, 236, 237, 238, 239, 240, 241, 242, 243, 244, 245, 246, 247, 248, 249, 250, 251, 252, 253, 254, 255, 256, 257, 258, 259, 260, 261, 262, 263, 264, 265, 266, 267, 268, 269, 270, 271, 272, 273, 274, 275, 276, 277, 278, 279, 280, 281, 282, 283, 284, 285, 286, 287, 288, 289, 290, 291, 292, 293, 294, 295, 296, 297, 298, 299, 300, 301, 302, 303, 304, 305, 306, 307, 308, 309, 310, 311, 312, 313, 314, 315, 316, 317, 318, 319, 320, 321, 322, 323, 324, 325, 326, 327, 328, 329, 330, 331, 332, 333, 334, 335, 336, 337, 338, 339, 340, 341, 342, 343, 344, 345, 346, 347, 348, 349, 350, 351, 352, 353, 354, 355, 356, 357, 358, 359, 360, 361, 362, 363, 364, 365, 366, 367, 368, 369, 370, 371, 372, 373],
