{
  "AcquisitionMatrixPE": 108,
  "AcquisitionNumber": 1,
  "AcquisitionTime": "11:25:15.380000",
  "BandwidthPerPixelPhaseEncode": 15.964,
  "BaseResolution": 108,
  "BodyPartExamined": "BRAIN",
  "ConsistencyInfo": "N4_VE11C_LATEST_20160120",
  "ConversionSoftware": "dcm2niix",
  "ConversionSoftwareVersion": "v1.0.20180622 GCC6.3.0",
  "DerivedVendorReportedEchoSpacing": 0.000580009,
  "DeviceSerialNumber": "66054",
  "DwellTime": 2.1e-06,
  "EchoTime": 0.031,
  "EchoTrainLength": 95,
  "EffectiveEchoSpacing": 0.000580009,
  "FlipAngle": 64,
  "ImageOrientationPatientDICOM": [0.999688, -0.0240376, 0.00677748, 0.0244318, 0.88498, -0.464988],
  "ImageType": [
    "ORIGINAL",
    "PRIMARY",
    "M",
    "ND",
    "MOSAIC"
],
  "InPlanePhaseEncodingDirectionDICOM": "COL",
  "InstitutionAddress": "Chemin_des_Mines_9_Geneve_District_CH_1211",
  "InstitutionName": "Fondation_Campus_Biotech_Geneva",
  "InstitutionalDepartmentName": "Department",
  "MRAcquisitionType": "2D",
  "MagneticFieldStrength": 3,
  "Manufacturer": "Siemens",
  "ManufacturersModelName": "Prisma",
  "Modality": "MR",
  "MultibandAccelerationFactor": 4,
  "PartialFourier": 0.875,
  "PatientPosition": "HFS",
  "PercentPhaseFOV": 100,
  "PhaseEncodingDirection": "j-",
  "PhaseEncodingSteps": 95,
  "PhaseResolution": 1,
  "PixelBandwidth": 2205,
  "ProcedureStepDescription": "J.DRM_Michael",
  "ProtocolName": "Run1_bold_s4_TR1.28",
  "PulseSequenceDetails": "%SiemensSeq%_ep2d_bold",
  "ReceiveCoilActiveElements": "HC1-7;NC1,2",
  "ReceiveCoilName": "HeadNeck_64",
  "ReconMatrixPE": 108,
  "RepetitionTime": 1.28,
  "SAR": 0.0656048,
  "ScanOptions": "PFP_FS",
  "ScanningSequence": "EP",
  "SequenceName": "_epfid2d1_108",
  "SequenceVariant": "SK",
  "SeriesDescription": "Run1_bold_s4_TR1.28",
  "SeriesNumber": 5,
  "ShimSetting": [-1261, -11620, 6445, 429, 139, -94, -47, 24],
  "SliceThickness": 2,
  "SliceTiming": [0.9425, 0, 0.6275, 0.0775, 0.7075, 0.1575, 0.785, 0.235, 0.865, 0.3925, 1.0225, 0.47, 1.1, 0.55, 1.18, 0.3125, 0.9425, 0, 0.6275, 0.0775, 0.7075, 0.1575, 0.785, 0.235, 0.865, 0.3925, 1.0225, 0.47, 1.1, 0.55, 1.18, 0.3125, 0.9425, 0, 0.6275, 0.0775, 0.7075, 0.1575, 0.785, 0.235, 0.865, 0.3925, 1.0225, 0.47, 1.1, 0.55, 1.18, 0.3125, 0.9425, 0, 0.6275, 0.0775, 0.7075, 0.1575, 0.785, 0.235, 0.865, 0.3925, 1.0225, 0.47, 1.1, 0.55, 1.18, 0.3125],
  "SoftwareVersions": "syngo_MR_E11",
  "SpacingBetweenSlices": 2,
  "StationName": "AWP66054",
  "TaskName": "main",
  "TotalReadoutTime": 0.0620609,
  "TxRefAmp": 259.601,
  "dcmmeta_affine": [
    [-1.9901198148727417, 0.04863745719194412, -0.01035852450877428, 105.16938781738281],
    [0.047852590680122375, 1.7617651224136353, -0.9300176501274109, -69.26219177246094],
    [0.013492203317582607, 0.9256711006164551, 1.770581841468811, -91.74140167236328],
    [0.0, 0.0, 0.0, 1.0]
],
  "dcmmeta_reorient_transform": [
    [0.0, -1.0, 0.0, 107.0],
    [1.0, 0.0, 0.0, 0.0],
    [0.0, 0.0, 1.0, 0.0],
    [0.0, 0.0, 0.0, 1.0]
],
  "dcmmeta_shape": [108, 108, 64, 373],
  "dcmmeta_slice_dim": 2,
  "dcmmeta_version": 0.6,
  "global": {
    "const": {
      "AccessionNumber": "",
      "AcquisitionMatrix": [108, 0, 0, 108],
      "AngioFlag": "N",
      "BitsAllocated": 16,
      "BitsStored": 12,
      "BodyPartExamined": "BRAIN",
      "Columns": 864,
      "EchoNumbers": 1,
      "EchoTime": 31.0,
      "EchoTrainLength": 95,
      "FlipAngle": 64.0,
      "HighBit": 11,
      "ImageOrientationPatient": [0.99968808162804, -0.024037579634, 0.00677747860172, 0.02443183775689, 0.88497965544553, -0.4649882737783],
      "ImagePositionPatient": [-881.02385180944, -767.10559475818, 352.10903559459],
      "ImageType": [
        "ORIGINAL",
        "PRIMARY",
        "M",
        "ND",
        "MOSAIC"
],
      "ImagedNucleus": "1H",
      "ImagingFrequency": 123.257334,
      "InPlanePhaseEncodingDirection": "COL",
      "MRAcquisitionType": "2D",
      "MagneticFieldStrength": 3.0,
      "Manufacturer": "SIEMENS",
      "ManufacturerModelName": "Prisma",
      "Modality": "MR",
      "NumberOfAverages": 1.0,
      "NumberOfPhaseEncodingSteps": 95,
      "PercentPhaseFieldOfView": 100.0,
      "PercentSampling": 100.0,
      "PerformedProcedureStepStartTime": "112135.074000",
      "PhotometricInterpretation": "MONOCHROME2",
      "PixelBandwidth": 2205.0,
      "PixelRepresentation": 0,
      "PixelSpacing": [1.990740776062, 1.990740776062],
      "PositionReferenceIndicator": "",
      "ProtocolName": "Run1_bold_s4_TR1.28",
      "RepetitionTime": 1280.0,
      "Rows": 864,
      "SAR": 0.06560481640429,
      "SamplesPerPixel": 1,
      "ScanOptions": [
        "PFP",
        "FS"
],
      "ScanningSequence": "EP",
      "SequenceName": "*epfid2d1_108",
      "SequenceVariant": "SK",
      "SeriesDescription": "Run1_bold_s4_TR1.28",
      "SeriesNumber": 5,
      "SeriesTime": "112556.888000",
      "SliceLocation": -49.554998331982,
      "SliceThickness": 2.0,
      "SmallestImagePixelValue": 0,
      "SoftwareVersions": "syngo MR E11",
      "SpacingBetweenSlices": 2.0000000160041,
      "SpecificCharacterSet": "ISO_IR 100",
      "StudyID": "1",
      "StudyTime": "112135.014000",
      "TransmitCoilName": "Body",
      "VariableFlipAngleFlag": "N",
      "WindowCenterWidthExplanation": "Algo1",
      "dBdt": 0.0},
    "slices": {}
  },
  "time": {
    "samples": {
      "AcquisitionNumber": [1, 2, 3, 4, 5, 6, 7, 8, 9, 10, 11, 12, 13, 14, 15, 16, 17, 18, 19, 20, 21, 22, 23, 24, 25, 26, 27, 28, 29, 30, 31, 32, 33, 34, 35, 36, 37, 38, 39, 40, 41, 42, 43, 44, 45, 46, 47, 48, 49, 50, 51, 52, 53, 54, 55, 56, 57, 58, 59, 60, 61, 62, 63, 64, 65, 66, 67, 68, 69, 70, 71, 72, 73, 74, 75, 76, 77, 78, 79, 80, 81, 82, 83, 84, 85, 86, 87, 88, 89, 90, 91, 92, 93, 94, 95, 96, 97, 98, 99, 100, 101, 102, 103, 104, 105, 106, 107, 108, 109, 110, 111, 112, 113, 114, 115, 116, 117, 118, 119, 120, 121, 122, 123, 124, 125, 126, 127, 128, 129, 130, 131, 132, 133, 134, 135, 136, 137, 138, 139, 140, 141, 142, 143, 144, 145, 146, 147, 148, 149, 150, 151, 152, 153, 154, 155, 156, 157, 158, 159, 160, 161, 162, 163, 164, 165, 166, 167, 168, 169, 170, 171, 172, 173, 174, 175, 176, 177, 178, 179, 180, 181, 182, 183, 184, 185, 186, 187, 188, 189, 190, 191, 192, 193, 194, 195, 196, 197, 198, 199, 200, 201, 202, 203, 204, 205, 206, 207, 208, 209, 210, 211, 212, 213, 214, 215, 216, 217, 218, 219, 220, 221, 222, 223, 224, 225, 226, 227, 228, 229, 230, 231, 232, 233, 234, 235, 236, 237, 238, 239, 240, 241, 242, 243, 244, 245, 246, 247, 248, 249, 250, 251, 252, 253, 254, 255, 256, 257, 258, 259, 260, 261, 262, 263, 264, 265, 266, 267, 268, 269, 270, 271, 272, 273, 274, 275, 276, 277, 278, 279, 280, 281, 282, 283, 284, 285, 286, 287, 288, 289, 290, 291, 292, 293, 294, 295, 296, 297, 298, 299, 300, 301, 302, 303, 304, 305, 306, 307, 308, 309, 310, 311, 312, 313, 314, 315, 316, 317, 318, 319, 320, 321, 322, 323, 324, 325, 326, 327, 328, 329, 330, 331, 332, 333, 334, 335, 336, 337, 338, 339, 340, 341, 342, 343, 344, 345, 346, 347, 348, 349, 350, 351, 352, 353, 354, 355, 356, 357, 358, 359, 360, 361, 362, 363, 364, 365, 366, 367, 368, 369, 370, 371, 372, 373],
      "AcquisitionTime": ["112515.380000", "112516.660000", "112517.940000", "112519.220000", "112520.500000", "112521.780000", "112523.060000", "112524.340000", "112525.620000", "112526.900000", "112528.180000", "112529.460000", "112530.740000", "112532.020000", "112533.300000", "112534.580000", "112535.860000", "112537.140000", "112538.420000", "112539.700000", "112540.980000", "112542.260000", "112543.540000", "112544.820000", "112546.100000", "112547.380000", "112548.660000", "112549.940000", "112551.220000", "112552.500000", "112553.780000", "112555.060000", "112556.340000", "112557.620000", "112558.900000", "112600.180000", "112601.460000", "112602.740000", "112604.020000", "112605.300000", "112606.580000", "112607.860000", "112609.140000", "112610.420000", "112611.700000", "112612.980000", "112614.260000", "112615.540000", "112616.820000", "112618.100000", "112619.380000", "112620.660000", "112621.940000", "112623.220000", "112624.500000", "112625.780000", "112627.060000", "112628.340000", "112629.620000", "112630.900000", "112632.180000", "112633.460000", "112634.740000", "112636.020000", "112637.300000", "112638.580000", "112639.860000", "112641.140000", "112642.420000", "112643.700000", "112644.980000", "112646.260000", "112647.540000", "112648.820000", "112650.100000", "112651.380000", "112652.660000", "112653.940000", "112655.220000", "112656.500000", "112657.780000", "112659.060000", "112700.340000", "112701.620000", "112702.900000", "112704.180000", "112705.460000", "112706.740000", "112708.020000", "112709.300000", "112710.580000", "112711.860000", "112713.140000", "112714.420000", "112715.700000", "112716.980000", "112718.260000", "112719.540000", "112720.820000", "112722.100000", "112723.380000", "112724.660000", "112725.940000", "112727.220000", "112728.500000", "112729.780000", "112731.060000", "112732.340000", "112733.620000", "112734.900000", "112736.180000", "112737.460000", "112738.740000", "112740.020000", "112741.300000", "112742.580000", "112743.860000", "112745.140000", "112746.420000", "112747.700000", "112748.980000", "112750.260000", "112751.540000", "112752.820000", "112754.100000", "112755.380000", "112756.660000", "112757.940000", "112759.220000", "112800.500000", "112801.780000", "112803.060000", "112804.340000", "112805.620000", "112806.900000", "112808.180000", "112809.460000", "112810.740000", "112812.020000", "112813.300000", "112814.580000", "112815.860000", "112817.140000", "112818.420000", "112819.700000", "112820.980000", "112822.260000", "112823.540000", "112824.820000", "112826.100000", "112827.380000", "112828.660000", "112829.940000", "112831.220000", "112832.500000", "112833.780000", "112835.060000", "112836.340000", "112837.620000", "112838.900000", "112840.180000", "112841.460000", "112842.740000", "112844.020000", "112845.300000", "112846.580000", "112847.860000", "112849.140000", "112850.420000", "112851.700000", "112852.980000", "112854.260000", "112855.540000", "112856.820000", "112858.100000", "112859.380000", "112900.660000", "112901.940000", "112903.220000", "112904.500000", "112905.780000", "112907.060000", "112908.340000", "112909.620000", "112910.900000", "112912.180000", "112913.460000", "112914.740000", "112916.020000", "112917.300000", "112918.580000", "112919.860000", "112921.140000", "112922.420000", "112923.700000", "112924.980000", "112926.260000", "112927.540000", "112928.820000", "112930.100000", "112931.380000", "112932.660000", "112933.940000", "112935.220000", "112936.500000", "112937.780000", "112939.060000", "112940.340000", "112941.620000", "112942.900000", "112944.180000", "112945.460000", "112946.740000", "112948.020000", "112949.300000", "112950.580000", "112951.860000", "112953.140000", "112954.420000", "112955.700000", "112956.980000", "112958.260000", "112959.540000", "113000.820000", "113002.100000", "113003.380000", "113004.660000", "113005.940000", "113007.220000", "113008.500000", "113009.780000", "113011.060000", "113012.340000", "113013.620000", "113014.900000", "113016.180000", "113017.460000", "113018.740000", "113020.020000", "113021.300000", "113022.580000", "113023.860000", "113025.140000", "113026.420000", "113027.700000", "113028.980000", "113030.260000", "113031.540000", "113032.820000", "113034.100000", "113035.380000", "113036.660000", "113037.940000", "113039.220000", "113040.500000", "113041.780000", "113043.060000", "113044.340000", "113045.620000", "113046.900000", "113048.180000", "113049.460000", "113050.740000", "113052.020000", "113053.300000", "113054.580000", "113055.860000", "113057.140000", "113058.420000", "113059.700000", "113100.980000", "113102.260000", "113103.540000", "113104.820000", "113106.100000", "113107.380000", "113108.660000", "113109.940000", "113111.220000", "113112.500000", "113113.780000", "113115.060000", "113116.340000", "113117.620000", "113118.900000", "113120.180000", "113121.460000", "113122.740000", "113124.020000", "113125.300000", "113126.580000", "113127.860000", "113129.140000", "113130.420000", "113131.700000", "113132.980000", "113134.260000", "113135.540000", "113136.820000", "113138.100000", "113139.380000", "113140.660000", "113141.940000", "113143.220000", "113144.500000", "113145.780000", "113147.060000", "113148.340000", "113149.620000", "113150.900000", "113152.180000", "113153.460000", "113154.740000", "113156.020000", "113157.300000", "113158.580000", "113159.860000", "113201.140000", "113202.420000", "113203.700000", "113204.980000", "113206.260000", "113207.540000", "113208.820000", "113210.100000", "113211.380000", "113212.660000", "113213.940000", "113215.220000", "113216.500000", "113217.780000", "113219.060000", "113220.340000", "113221.620000", "113222.900000", "113224.180000", "113225.460000", "113226.740000", "113228.020000", "113229.300000", "113230.580000", "113231.860000", "113233.140000", "113234.420000", "113235.700000", "113236.980000", "113238.260000", "113239.540000", "113240.820000", "113242.100000", "113243.380000", "113244.660000", "113245.940000", "113247.220000", "113248.500000", "113249.780000", "113251.060000", "113252.340000", "113253.620000", "113254.900000", "113256.180000", "113257.460000", "113258.740000", "113300.020000", "113301.300000", "113302.580000", "113303.860000", "113305.140000", "113306.420000", "113307.700000", "113308.980000", "113310.260000", "113311.540000"],
      "ContentTime": ["112556.892000", "112556.895000", "112556.898000", "112556.901000", "112556.904000", "112556.907000", "112556.910000", "112556.913000", "112556.916000", "112556.918000", "112556.921000", "112556.925000", "112556.928000", "112556.930000", "112556.933000", "112556.936000", "112556.939000", "112556.942000", "112556.945000", "112556.948000", "112556.951000", "112556.954000", "112556.956000", "112556.959000", "112556.962000", "112556.969000", "112556.972000", "112556.975000", "112556.977000", "112556.980000", "112556.983000", "112556.986000", "112636.887000", "112636.890000", "112636.893000", "112636.896000", "112636.899000", "112636.902000", "112636.905000", "112636.908000", "112636.910000", "112636.913000", "112636.916000", "112636.919000", "112636.927000", "112636.930000", "112636.933000", "112636.936000", "112636.939000", "112636.942000", "112636.945000", "112636.948000", "112636.951000", "112636.953000", "112636.956000", "112636.959000", "112636.968000", "112636.971000", "112636.973000", "112636.976000", "112636.979000", "112636.982000", "112636.985000", "112636.988000", "112716.886000", "112716.889000", "112716.892000", "112716.895000", "112716.898000", "112716.901000", "112716.904000", "112716.907000", "112716.916000", "112716.919000", "112716.922000", "112716.925000", "112716.928000", "112716.931000", "112716.933000", "112716.936000", "112716.939000", "112716.942000", "112716.945000", "112716.948000", "112716.951000", "112716.954000", "112716.956000", "112716.959000", "112716.962000", "112716.965000", "112716.968000", "112716.971000", "112716.974000", "112716.977000", "112716.980000", "112756.887000", "112756.890000", "112756.893000", "112756.896000", "112756.899000", "112756.902000", "112756.905000", "112756.908000", "112756.910000", "112756.913000", "112756.916000", "112756.919000", "112756.922000", "112756.925000", "112756.928000", "112756.931000", "112756.934000", "112756.937000", "112756.940000", "112756.943000", "112756.946000", "112756.949000", "112756.951000", "112756.955000", "112756.958000", "112756.961000", "112756.963000", "112756.967000", "112756.969000", "112756.980000", "112756.983000", "112836.887000", "112836.890000", "112836.893000", "112836.896000", "112836.899000", "112836.902000", "112836.905000", "112836.908000", "112836.911000", "112836.914000", "112836.917000", "112836.920000", "112836.923000", "112836.926000", "112836.928000", "112836.931000", "112836.934000", "112836.937000", "112836.940000", "112836.943000", "112836.946000", "112836.949000", "112836.952000", "112836.955000", "112836.958000", "112836.961000", "112836.964000", "112836.967000", "112836.970000", "112836.973000", "112836.976000", "112916.886000", "112916.889000", "112916.892000", "112916.895000", "112916.898000", "112916.901000", "112916.904000", "112916.906000", "112916.909000", "112916.912000", "112916.915000", "112916.918000", "112916.921000", "112916.924000", "112916.927000", "112916.929000", "112916.932000", "112916.935000", "112916.938000", "112916.941000", "112916.944000", "112916.947000", "112916.950000", "112916.953000", "112916.956000", "112916.959000", "112916.962000", "112916.965000", "112916.968000", "112916.971000", "112916.980000", "112956.887000", "112956.890000", "112956.893000", "112956.896000", "112956.899000", "112956.902000", "112956.905000", "112956.908000", "112956.910000", "112956.913000", "112956.916000", "112956.919000", "112956.922000", "112956.925000", "112956.928000", "112956.931000", "112956.934000", "112956.937000", "112956.940000", "112956.943000", "112956.945000", "112956.948000", "112956.951000", "112956.954000", "112956.957000", "112956.960000", "112956.963000", "112956.966000", "112956.969000", "112956.972000", "112956.975000", "112956.978000", "113036.887000", "113036.890000", "113036.893000", "113036.896000", "113036.899000", "113036.902000", "113036.905000", "113036.907000", "113036.910000", "113036.913000", "113036.916000", "113036.919000", "113036.922000", "113036.925000", "113036.928000", "113036.931000", "113036.934000", "113036.936000", "113036.939000", "113036.942000", "113036.945000", "113036.948000", "113036.951000", "113036.954000", "113036.957000", "113036.960000", "113036.962000", "113036.965000", "113036.968000", "113036.971000", "113036.974000", "113116.887000", "113116.890000", "113116.893000", "113116.896000", "113116.899000", "113116.902000", "113116.905000", "113116.907000", "113116.910000", "113116.913000", "113116.916000", "113116.919000", "113116.922000", "113116.925000", "113116.928000", "113116.931000", "113116.934000", "113116.937000", "113116.939000", "113116.942000", "113116.945000", "113116.948000", "113116.958000", "113116.970000", "113116.973000", "113116.976000", "113116.979000", "113116.982000", "113116.985000", "113116.988000", "113116.991000", "113156.886000", "113156.889000", "113156.892000", "113156.895000", "113156.898000", "113156.901000", "113156.904000", "113156.907000", "113156.910000", "113156.912000", "113156.915000", "113156.918000", "113156.921000", "113156.924000", "113156.927000", "113156.930000", "113156.933000", "113156.936000", "113156.939000", "113156.941000", "113156.944000", "113156.947000", "113156.950000", "113156.953000", "113156.956000", "113156.960000", "113156.963000", "113156.966000", "113156.969000", "113156.972000", "113156.975000", "113156.978000", "113236.887000", "113236.890000", "113236.893000", "113236.896000", "113236.899000", "113236.902000", "113236.905000", "113236.907000", "113236.910000", "113236.913000", "113236.916000", "113236.919000", "113236.922000", "113236.925000", "113236.928000", "113236.931000", "113236.934000", "113236.936000", "113236.939000", "113236.942000", "113236.945000", "113236.948000", "113236.951000", "113236.954000", "113236.957000", "113236.959000", "113236.962000", "113236.965000", "113236.968000", "113236.971000", "113236.974000", "113312.388000", "113312.392000", "113312.395000", "113312.398000", "113312.418000", "113312.421000", "113312.424000", "113312.428000", "113312.431000", "113312.434000", "113312.438000", "113312.441000", "113312.444000", "113312.448000", "113312.452000", "113312.455000", "113312.458000", "113312.461000", "113312.464000", "113312.469000", "113312.472000", "113312.475000", "113312.478000", "113312.481000", "113312.484000", "113312.487000", "113312.490000", "113312.493000"],
      "InstanceCreationTime": ["112556.892000", "112556.895000", "112556.898000", "112556.901000", "112556.904000", "112556.907000", "112556.910000", "112556.913000", "112556.916000", "112556.918000", "112556.921000", "112556.925000", "112556.928000", "112556.930000", "112556.933000", "112556.936000", "112556.939000", "112556.942000", "112556.945000", "112556.948000", "112556.951000", "112556.954000", "112556.956000", "112556.959000", "112556.962000", "112556.969000", "112556.972000", "112556.975000", "112556.977000", "112556.980000", "112556.983000", "112556.986000", "112636.887000", "112636.890000", "112636.893000", "112636.896000", "112636.899000", "112636.902000", "112636.905000", "112636.908000", "112636.910000", "112636.913000", "112636.916000", "112636.919000", "112636.927000", "112636.930000", "112636.933000", "112636.936000", "112636.939000", "112636.942000", "112636.945000", "112636.948000", "112636.951000", "112636.953000", "112636.956000", "112636.959000", "112636.968000", "112636.971000", "112636.973000", "112636.976000", "112636.979000", "112636.982000", "112636.985000", "112636.988000", "112716.886000", "112716.889000", "112716.892000", "112716.895000", "112716.898000", "112716.901000", "112716.904000", "112716.907000", "112716.916000", "112716.919000", "112716.922000", "112716.925000", "112716.928000", "112716.931000", "112716.933000", "112716.936000", "112716.939000", "112716.942000", "112716.945000", "112716.948000", "112716.951000", "112716.954000", "112716.956000", "112716.959000", "112716.962000", "112716.965000", "112716.968000", "112716.971000", "112716.974000", "112716.977000", "112716.980000", "112756.887000", "112756.890000", "112756.893000", "112756.896000", "112756.899000", "112756.902000", "112756.905000", "112756.908000", "112756.910000", "112756.913000", "112756.916000", "112756.919000", "112756.922000", "112756.925000", "112756.928000", "112756.931000", "112756.934000", "112756.937000", "112756.940000", "112756.943000", "112756.946000", "112756.949000", "112756.951000", "112756.955000", "112756.958000", "112756.961000", "112756.963000", "112756.967000", "112756.969000", "112756.980000", "112756.983000", "112836.887000", "112836.890000", "112836.893000", "112836.896000", "112836.899000", "112836.902000", "112836.905000", "112836.908000", "112836.911000", "112836.914000", "112836.917000", "112836.920000", "112836.923000", "112836.926000", "112836.928000", "112836.931000", "112836.934000", "112836.937000", "112836.940000", "112836.943000", "112836.946000", "112836.949000", "112836.952000", "112836.955000", "112836.958000", "112836.961000", "112836.964000", "112836.967000", "112836.970000", "112836.973000", "112836.976000", "112916.886000", "112916.889000", "112916.892000", "112916.895000", "112916.898000", "112916.901000", "112916.904000", "112916.906000", "112916.909000", "112916.912000", "112916.915000", "112916.918000", "112916.921000", "112916.924000", "112916.927000", "112916.929000", "112916.932000", "112916.935000", "112916.938000", "112916.941000", "112916.944000", "112916.947000", "112916.950000", "112916.953000", "112916.956000", "112916.959000", "112916.962000", "112916.965000", "112916.968000", "112916.971000", "112916.980000", "112956.887000", "112956.890000", "112956.893000", "112956.896000", "112956.899000", "112956.902000", "112956.905000", "112956.908000", "112956.910000", "112956.913000", "112956.916000", "112956.919000", "112956.922000", "112956.925000", "112956.928000", "112956.931000", "112956.934000", "112956.937000", "112956.940000", "112956.943000", "112956.945000", "112956.948000", "112956.951000", "112956.954000", "112956.957000", "112956.960000", "112956.963000", "112956.966000", "112956.969000", "112956.972000", "112956.975000", "112956.978000", "113036.887000", "113036.890000", "113036.893000", "113036.896000", "113036.899000", "113036.902000", "113036.905000", "113036.907000", "113036.910000", "113036.913000", "113036.916000", "113036.919000", "113036.922000", "113036.925000", "113036.928000", "113036.931000", "113036.934000", "113036.936000", "113036.939000", "113036.942000", "113036.945000", "113036.948000", "113036.951000", "113036.954000", "113036.957000", "113036.960000", "113036.962000", "113036.965000", "113036.968000", "113036.971000", "113036.974000", "113116.887000", "113116.890000", "113116.893000", "113116.896000", "113116.899000", "113116.902000", "113116.905000", "113116.907000", "113116.910000", "113116.913000", "113116.916000", "113116.919000", "113116.922000", "113116.925000", "113116.928000", "113116.931000", "113116.934000", "113116.937000", "113116.939000", "113116.942000", "113116.945000", "113116.948000", "113116.958000", "113116.970000", "113116.973000", "113116.976000", "113116.979000", "113116.982000", "113116.985000", "113116.988000", "113116.991000", "113156.886000", "113156.889000", "113156.892000", "113156.895000", "113156.898000", "113156.901000", "113156.904000", "113156.907000", "113156.910000", "113156.912000", "113156.915000", "113156.918000", "113156.921000", "113156.924000", "113156.927000", "113156.930000", "113156.933000", "113156.936000", "113156.939000", "113156.941000", "113156.944000", "113156.947000", "113156.950000", "113156.953000", "113156.956000", "113156.960000", "113156.963000", "113156.966000", "113156.969000", "113156.972000", "113156.975000", "113156.978000", "113236.887000", "113236.890000", "113236.893000", "113236.896000", "113236.899000", "113236.902000", "113236.905000", "113236.907000", "113236.910000", "113236.913000", "113236.916000", "113236.919000", "113236.922000", "113236.925000", "113236.928000", "113236.931000", "113236.934000", "113236.936000", "113236.939000", "113236.942000", "113236.945000", "113236.948000", "113236.951000", "113236.954000", "113236.957000", "113236.959000", "113236.962000", "113236.965000", "113236.968000", "113236.971000", "113236.974000", "113312.388000", "113312.392000", "113312.395000", "113312.398000", "113312.418000", "113312.421000", "113312.424000", "113312.428000", "113312.431000", "113312.434000", "113312.438000", "113312.441000", "113312.444000", "113312.448000", "113312.452000", "113312.455000", "113312.458000", "113312.461000", "113312.464000", "113312.469000", "113312.472000", "113312.475000", "113312.478000", "113312.481000", "113312.484000", "113312.487000", "113312.490000", "113312.493000"],
      "InstanceNumber": [1, 2, 3, 4, 5, 6, 7, 8, 9, 10, 11, 12, 13, 14, 15, 16, 17, 18, 19, 20, 21, 22, 23, 24, 25, 26, 27, 28, 29, 30, 31, 32, 33, 34, 35, 36, 37, 38, 39, 40, 41, 42, 43, 44, 45, 46, 47, 48, 49, 50, 51, 52, 53, 54, 55, 56, 57, 58, 59, 60, 61, 62, 63, 64, 65, 66, 67, 68, 69, 70, 71, 72, 73, 74, 75, 76, 77, 78, 79, 80, 81, 82, 83, 84, 85, 86, 87, 88, 89, 90, 91, 92, 93, 94, 95, 96, 97, 98, 99, 100, 101, 102, 103, 104, 105, 106, 107, 108, 109, 110, 111, 112, 113, 114, 115, 116, 117, 118, 119, 120, 121, 122, 123, 124, 125, 126, 127, 128, 129, 130, 131, 132, 133, 134, 135, 136, 137, 138, 139, 140, 141, 142, 143, 144, 145, 146, 147, 148, 149, 150, 151, 152, 153, 154, 155, 156, 157, 158, 159, 160, 161, 162, 163, 164, 165, 166, 167, 168, 169, 170, 171, 172, 173, 174, 175, 176, 177, 178, 179, 180, 181, 182, 183, 184, 185, 186, 187, 188, 189, 190, 191, 192, 193, 194, 195, 196, 197, 198, 199, 200, 201, 202, 203, 204, 205, 206, 207, 208, 209, 210, 211, 212, 213, 214, 215, 216, 217, 218, 219, 220, 221, 222, 223, 224, 225, 226, 227, 228, 229, 230, 231, 232, 233, 234, 235, 236, 237, 238, 239, 240, 241, 242, 243, 244, 245, 246, 247, 248, 249, 250, 251, 252, 253, 254, 255, 256, 257, 258, 259, 260, 261, 262, 263, 264, 265, 266, 267, 268, 269, 270, 271, 272, 273, 274, 275, 276, 277, 278, 279, 280, 281, 282, 283, 284, 285, 286, 287, 288, 289, 290, 291, 292, 293, 294, 295, 296, 297, 298, 299, 300, 301, 302, 303, 304, 305, 306, 307, 308, 309, 310, 311, 312, 313, 314, 315, 316, 317, 318, 319, 320, 321, 322, 323, 324, 325, 326, 327, 328, 329, 330, 331, 332, 333, 334, 335, 336, 337, 338, 339, 340, 341, 342, 343, 344, 345, 346, 347, 348, 349, 350, 351, 352, 353, 354, 355, 356, 357, 358, 359, 360, 361, 362, 363, 364, 365, 366, 367, 368, 369, 370, 371, 372, 373],
