{
  "AcquisitionMatrixPE": 108,
  "AcquisitionNumber": 1,
  "AcquisitionTime": "11:58:37.312500",
  "BandwidthPerPixelPhaseEncode": 15.964,
  "BaseResolution": 108,
  "BodyPartExamined": "BRAIN",
  "ConsistencyInfo": "N4_VE11C_LATEST_20160120",
  "ConversionSoftware": "dcm2niix",
  "ConversionSoftwareVersion": "v1.0.20180622 GCC6.3.0",
  "DerivedVendorReportedEchoSpacing": 0.000580009,
  "DeviceSerialNumber": "66054",
  "DwellTime": 2.1e-06,
  "EchoTime": 0.031,
  "EchoTrainLength": 95,
  "EffectiveEchoSpacing": 0.000580009,
  "FlipAngle": 64,
  "ImageOrientationPatientDICOM": [0.999688, -0.0240376, 0.00677748, 0.0244318, 0.88498, -0.464988],
  "ImageType": [
    "ORIGINAL",
    "PRIMARY",
    "M",
    "ND",
    "MOSAIC"
],
  "InPlanePhaseEncodingDirectionDICOM": "COL",
  "InstitutionAddress": "Chemin_des_Mines_9_Geneve_District_CH_1211",
  "InstitutionName": "Fondation_Campus_Biotech_Geneva",
  "InstitutionalDepartmentName": "Department",
  "MRAcquisitionType": "2D",
  "MagneticFieldStrength": 3,
  "Manufacturer": "Siemens",
  "ManufacturersModelName": "Prisma",
  "Modality": "MR",
  "MultibandAccelerationFactor": 4,
  "PartialFourier": 0.875,
  "PatientPosition": "HFS",
  "PercentPhaseFOV": 100,
  "PhaseEncodingDirection": "j-",
  "PhaseEncodingSteps": 95,
  "PhaseResolution": 1,
  "PixelBandwidth": 2205,
  "ProcedureStepDescription": "J.DRM_Michael",
  "ProtocolName": "Run4_bold_s4_TR1.28",
  "PulseSequenceDetails": "%SiemensSeq%_ep2d_bold",
  "ReceiveCoilActiveElements": "HC1-7;NC1,2",
  "ReceiveCoilName": "HeadNeck_64",
  "ReconMatrixPE": 108,
  "RepetitionTime": 1.28,
  "SAR": 0.0656048,
  "ScanOptions": "PFP_FS",
  "ScanningSequence": "EP",
  "SequenceName": "_epfid2d1_108",
  "SequenceVariant": "SK",
  "SeriesDescription": "Run4_bold_s4_TR1.28",
  "SeriesNumber": 9,
  "ShimSetting": [-1261, -11620, 6445, 429, 139, -94, -47, 24],
  "SliceThickness": 2,
  "SliceTiming": [0.945, 0, 0.63, 0.08, 0.71, 0.1575, 0.7875, 0.2375, 0.8675, 0.395, 1.025, 0.4725, 1.1025, 0.5525, 1.1825, 0.315, 0.945, 0, 0.63, 0.08, 0.71, 0.1575, 0.7875, 0.2375, 0.8675, 0.395, 1.025, 0.4725, 1.1025, 0.5525, 1.1825, 0.315, 0.945, 0, 0.63, 0.08, 0.71, 0.1575, 0.7875, 0.2375, 0.8675, 0.395, 1.025, 0.4725, 1.1025, 0.5525, 1.1825, 0.315, 0.945, 0, 0.63, 0.08, 0.71, 0.1575, 0.7875, 0.2375, 0.8675, 0.395, 1.025, 0.4725, 1.1025, 0.5525, 1.1825, 0.315],
  "SoftwareVersions": "syngo_MR_E11",
  "SpacingBetweenSlices": 2,
  "StationName": "AWP66054",
  "TaskName": "main",
  "TotalReadoutTime": 0.0620609,
  "TxRefAmp": 259.601,
  "dcmmeta_affine": [
    [-1.9901198148727417, 0.04863745719194412, -0.01035852450877428, 105.16938781738281],
    [0.047852590680122375, 1.7617651224136353, -0.9300176501274109, -69.26219177246094],
    [0.013492203317582607, 0.9256711006164551, 1.770581841468811, -91.74140167236328],
    [0.0, 0.0, 0.0, 1.0]
],
  "dcmmeta_reorient_transform": [
    [0.0, -1.0, 0.0, 107.0],
    [1.0, 0.0, 0.0, 0.0],
    [0.0, 0.0, 1.0, 0.0],
    [0.0, 0.0, 0.0, 1.0]
],
  "dcmmeta_shape": [108, 108, 64, 373],
  "dcmmeta_slice_dim": 2,
  "dcmmeta_version": 0.6,
  "global": {
    "const": {
      "AccessionNumber": "",
      "AcquisitionMatrix": [108, 0, 0, 108],
      "AngioFlag": "N",
      "BitsAllocated": 16,
      "BitsStored": 12,
      "BodyPartExamined": "BRAIN",
      "Columns": 864,
      "EchoNumbers": 1,
      "EchoTime": 31.0,
      "EchoTrainLength": 95,
      "FlipAngle": 64.0,
      "HighBit": 11,
      "ImageOrientationPatient": [0.99968808162804, -0.024037579634, 0.00677747860172, 0.02443183775689, 0.88497965544553, -0.4649882737783],
      "ImagePositionPatient": [-881.02385180944, -767.10559475818, 352.10903559459],
      "ImageType": [
        "ORIGINAL",
        "PRIMARY",
        "M",
        "ND",
        "MOSAIC"
],
      "ImagedNucleus": "1H",
      "ImagingFrequency": 123.257348,
      "InPlanePhaseEncodingDirection": "COL",
      "MRAcquisitionType": "2D",
      "MagneticFieldStrength": 3.0,
      "Manufacturer": "SIEMENS",
      "ManufacturerModelName": "Prisma",
      "Modality": "MR",
      "NumberOfAverages": 1.0,
      "NumberOfPhaseEncodingSteps": 95,
      "PercentPhaseFieldOfView": 100.0,
      "PercentSampling": 100.0,
      "PerformedProcedureStepStartTime": "112135.074000",
      "PhotometricInterpretation": "MONOCHROME2",
      "PixelBandwidth": 2205.0,
      "PixelRepresentation": 0,
      "PixelSpacing": [1.990740776062, 1.990740776062],
      "PositionReferenceIndicator": "",
      "ProtocolName": "Run4_bold_s4_TR1.28",
      "RepetitionTime": 1280.0,
      "Rows": 864,
      "SAR": 0.06560481640429,
      "SamplesPerPixel": 1,
      "ScanOptions": [
        "PFP",
        "FS"
],
      "ScanningSequence": "EP",
      "SequenceName": "*epfid2d1_108",
      "SequenceVariant": "SK",
      "SeriesDescription": "Run4_bold_s4_TR1.28",
      "SeriesNumber": 9,
      "SeriesTime": "115916.959000",
      "SliceLocation": -49.554998331982,
      "SliceThickness": 2.0,
      "SmallestImagePixelValue": 0,
      "SoftwareVersions": "syngo MR E11",
      "SpacingBetweenSlices": 2.0000000160041,
      "SpecificCharacterSet": "ISO_IR 100",
      "StudyID": "1",
      "StudyTime": "112135.014000",
      "TransmitCoilName": "Body",
      "VariableFlipAngleFlag": "N",
      "WindowCenterWidthExplanation": "Algo1",
      "dBdt": 0.0},
    "slices": {}
  },
  "time": {
    "samples": {
      "AcquisitionNumber": [1, 2, 3, 4, 5, 6, 7, 8, 9, 10, 11, 12, 13, 14, 15, 16, 17, 18, 19, 20, 21, 22, 23, 24, 25, 26, 27, 28, 29, 30, 31, 32, 33, 34, 35, 36, 37, 38, 39, 40, 41, 42, 43, 44, 45, 46, 47, 48, 49, 50, 51, 52, 53, 54, 55, 56, 57, 58, 59, 60, 61, 62, 63, 64, 65, 66, 67, 68, 69, 70, 71, 72, 73, 74, 75, 76, 77, 78, 79, 80, 81, 82, 83, 84, 85, 86, 87, 88, 89, 90, 91, 92, 93, 94, 95, 96, 97, 98, 99, 100, 101, 102, 103, 104, 105, 106, 107, 108, 109, 110, 111, 112, 113, 114, 115, 116, 117, 118, 119, 120, 121, 122, 123, 124, 125, 126, 127, 128, 129, 130, 131, 132, 133, 134, 135, 136, 137, 138, 139, 140, 141, 142, 143, 144, 145, 146, 147, 148, 149, 150, 151, 152, 153, 154, 155, 156, 157, 158, 159, 160, 161, 162, 163, 164, 165, 166, 167, 168, 169, 170, 171, 172, 173, 174, 175, 176, 177, 178, 179, 180, 181, 182, 183, 184, 185, 186, 187, 188, 189, 190, 191, 192, 193, 194, 195, 196, 197, 198, 199, 200, 201, 202, 203, 204, 205, 206, 207, 208, 209, 210, 211, 212, 213, 214, 215, 216, 217, 218, 219, 220, 221, 222, 223, 224, 225, 226, 227, 228, 229, 230, 231, 232, 233, 234, 235, 236, 237, 238, 239, 240, 241, 242, 243, 244, 245, 246, 247, 248, 249, 250, 251, 252, 253, 254, 255, 256, 257, 258, 259, 260, 261, 262, 263, 264, 265, 266, 267, 268, 269, 270, 271, 272, 273, 274, 275, 276, 277, 278, 279, 280, 281, 282, 283, 284, 285, 286, 287, 288, 289, 290, 291, 292, 293, 294, 295, 296, 297, 298, 299, 300, 301, 302, 303, 304, 305, 306, 307, 308, 309, 310, 311, 312, 313, 314, 315, 316, 317, 318, 319, 320, 321, 322, 323, 324, 325, 326, 327, 328, 329, 330, 331, 332, 333, 334, 335, 336, 337, 338, 339, 340, 341, 342, 343, 344, 345, 346, 347, 348, 349, 350, 351, 352, 353, 354, 355, 356, 357, 358, 359, 360, 361, 362, 363, 364, 365, 366, 367, 368, 369, 370, 371, 372, 373],
      "AcquisitionTime": ["115837.312500", "115838.592500", "115839.872500", "115841.152500", "115842.432500", "115843.712500", "115844.992500", "115846.272500", "115847.552500", "115848.832500", "115850.112500", "115851.392500", "115852.672500", "115853.952500", "115855.232500", "115856.512500", "115857.792500", "115859.072500", "115900.352500", "115901.632500", "115902.912500", "115904.192500", "115905.472500", "115906.752500", "115908.032500", "115909.312500", "115910.592500", "115911.872500", "115913.152500", "115914.432500", "115915.712500", "115916.992500", "115918.272500", "115919.552500", "115920.832500", "115922.112500", "115923.392500", "115924.672500", "115925.952500", "115927.232500", "115928.512500", "115929.792500", "115931.072500", "115932.352500", "115933.632500", "115934.912500", "115936.192500", "115937.472500", "115938.752500", "115940.032500", "115941.312500", "115942.592500", "115943.872500", "115945.152500", "115946.432500", "115947.712500", "115948.992500", "115950.272500", "115951.552500", "115952.832500", "115954.112500", "115955.392500", "115956.672500", "115957.952500", "115959.232500", "120000.512500", "120001.792500", "120003.072500", "120004.352500", "120005.632500", "120006.912500", "120008.192500", "120009.472500", "120010.752500", "120012.032500", "120013.312500", "120014.592500", "120015.872500", "120017.152500", "120018.432500", "120019.712500", "120020.992500", "120022.272500", "120023.552500", "120024.832500", "120026.112500", "120027.392500", "120028.672500", "120029.952500", "120031.232500", "120032.512500", "120033.792500", "120035.072500", "120036.352500", "120037.632500", "120038.912500", "120040.192500", "120041.472500", "120042.752500", "120044.032500", "120045.312500", "120046.592500", "120047.872500", "120049.152500", "120050.432500", "120051.712500", "120052.992500", "120054.272500", "120055.552500", "120056.832500", "120058.112500", "120059.392500", "120100.672500", "120101.952500", "120103.232500", "120104.512500", "120105.792500", "120107.072500", "120108.352500", "120109.632500", "120110.912500", "120112.192500", "120113.472500", "120114.752500", "120116.032500", "120117.312500", "120118.592500", "120119.872500", "120121.152500", "120122.432500", "120123.712500", "120124.992500", "120126.272500", "120127.552500", "120128.832500", "120130.112500", "120131.392500", "120132.672500", "120133.952500", "120135.232500", "120136.512500", "120137.792500", "120139.072500", "120140.352500", "120141.632500", "120142.912500", "120144.192500", "120145.472500", "120146.752500", "120148.032500", "120149.312500", "120150.592500", "120151.872500", "120153.152500", "120154.432500", "120155.712500", "120156.992500", "120158.272500", "120159.552500", "120200.832500", "120202.112500", "120203.392500", "120204.672500", "120205.952500", "120207.232500", "120208.512500", "120209.792500", "120211.072500", "120212.352500", "120213.632500", "120214.912500", "120216.192500", "120217.472500", "120218.752500", "120220.032500", "120221.312500", "120222.592500", "120223.872500", "120225.152500", "120226.432500", "120227.712500", "120228.992500", "120230.272500", "120231.552500", "120232.832500", "120234.112500", "120235.392500", "120236.672500", "120237.952500", "120239.232500", "120240.512500", "120241.792500", "120243.072500", "120244.352500", "120245.632500", "120246.912500", "120248.192500", "120249.472500", "120250.752500", "120252.032500", "120253.312500", "120254.592500", "120255.872500", "120257.152500", "120258.432500", "120259.712500", "120300.992500", "120302.272500", "120303.552500", "120304.832500", "120306.112500", "120307.392500", "120308.672500", "120309.952500", "120311.232500", "120312.512500", "120313.792500", "120315.072500", "120316.352500", "120317.632500", "120318.912500", "120320.192500", "120321.472500", "120322.752500", "120324.032500", "120325.312500", "120326.592500", "120327.872500", "120329.152500", "120330.432500", "120331.712500", "120332.992500", "120334.272500", "120335.552500", "120336.832500", "120338.112500", "120339.392500", "120340.672500", "120341.952500", "120343.232500", "120344.512500", "120345.792500", "120347.072500", "120348.352500", "120349.632500", "120350.912500", "120352.192500", "120353.472500", "120354.752500", "120356.032500", "120357.312500", "120358.592500", "120359.872500", "120401.152500", "120402.432500", "120403.712500", "120404.992500", "120406.272500", "120407.552500", "120408.832500", "120410.112500", "120411.392500", "120412.672500", "120413.952500", "120415.232500", "120416.512500", "120417.792500", "120419.072500", "120420.352500", "120421.632500", "120422.912500", "120424.192500", "120425.472500", "120426.752500", "120428.032500", "120429.312500", "120430.592500", "120431.872500", "120433.152500", "120434.432500", "120435.712500", "120436.992500", "120438.272500", "120439.552500", "120440.832500", "120442.112500", "120443.392500", "120444.672500", "120445.952500", "120447.232500", "120448.512500", "120449.792500", "120451.072500", "120452.352500", "120453.632500", "120454.912500", "120456.192500", "120457.472500", "120458.752500", "120500.032500", "120501.312500", "120502.592500", "120503.872500", "120505.152500", "120506.432500", "120507.712500", "120508.992500", "120510.272500", "120511.552500", "120512.832500", "120514.112500", "120515.392500", "120516.672500", "120517.952500", "120519.232500", "120520.512500", "120521.792500", "120523.072500", "120524.352500", "120525.632500", "120526.912500", "120528.192500", "120529.472500", "120530.752500", "120532.032500", "120533.312500", "120534.592500", "120535.872500", "120537.152500", "120538.432500", "120539.712500", "120540.992500", "120542.272500", "120543.552500", "120544.832500", "120546.112500", "120547.392500", "120548.672500", "120549.952500", "120551.232500", "120552.512500", "120553.792500", "120555.072500", "120556.352500", "120557.632500", "120558.912500", "120600.192500", "120601.472500", "120602.752500", "120604.032500", "120605.312500", "120606.592500", "120607.872500", "120609.152500", "120610.432500", "120611.712500", "120612.992500", "120614.272500", "120615.552500", "120616.832500", "120618.112500", "120619.392500", "120620.672500", "120621.952500", "120623.232500", "120624.512500", "120625.792500", "120627.072500", "120628.352500", "120629.632500", "120630.912500", "120632.192500", "120633.472500"],
      "ContentTime": ["115916.962000", "115916.966000", "115916.969000", "115916.972000", "115916.975000", "115916.978000", "115916.981000", "115916.983000", "115916.986000", "115916.989000", "115916.992000", "115916.995000", "115916.998000", "115917.002000", "115917.005000", "115917.008000", "115917.011000", "115917.013000", "115917.016000", "115917.025000", "115917.028000", "115917.031000", "115917.034000", "115917.037000", "115917.039000", "115917.042000", "115917.045000", "115917.048000", "115917.051000", "115917.054000", "115917.057000", "115956.958000", "115956.961000", "115956.964000", "115956.967000", "115956.970000", "115956.972000", "115956.984000", "115956.987000", "115956.990000", "115956.993000", "115956.995000", "115956.998000", "115957.002000", "115957.005000", "115957.008000", "115957.011000", "115957.014000", "115957.016000", "115957.019000", "115957.022000", "115957.025000", "115957.028000", "115957.031000", "115957.034000", "115957.036000", "115957.039000", "115957.042000", "115957.045000", "115957.048000", "115957.051000", "115957.054000", "120036.959000", "120036.962000", "120036.965000", "120036.967000", "120036.970000", "120036.973000", "120036.976000", "120036.979000", "120036.982000", "120036.986000", "120036.989000", "120036.992000", "120036.995000", "120036.998000", "120037.001000", "120037.012000", "120037.014000", "120037.017000", "120037.020000", "120037.023000", "120037.026000", "120037.029000", "120037.032000", "120037.034000", "120037.037000", "120037.040000", "120037.043000", "120037.046000", "120037.049000", "120037.052000", "120037.055000", "120116.959000", "120116.962000", "120116.965000", "120116.968000", "120116.971000", "120116.973000", "120116.976000", "120116.979000", "120116.982000", "120116.985000", "120116.988000", "120116.991000", "120116.994000", "120116.997000", "120117.000000", "120117.003000", "120117.006000", "120117.009000", "120117.012000", "120117.015000", "120117.018000", "120117.021000", "120117.035000", "120117.037000", "120117.040000", "120117.043000", "120117.046000", "120117.049000", "120117.052000", "120117.055000", "120117.058000", "120156.958000", "120156.961000", "120156.971000", "120156.978000", "120156.983000", "120156.989000", "120156.993000", "120157.002000", "120157.005000", "120157.008000", "120157.017000", "120157.020000", "120157.023000", "120157.026000", "120157.029000", "120157.032000", "120157.036000", "120157.039000", "120157.041000", "120157.044000", "120157.047000", "120157.056000", "120157.059000", "120157.062000", "120157.065000", "120157.068000", "120157.071000", "120157.074000", "120157.077000", "120157.080000", "120157.083000", "120157.086000", "120236.959000", "120236.962000", "120236.965000", "120236.968000", "120236.971000", "120236.973000", "120236.976000", "120236.979000", "120236.982000", "120236.985000", "120236.988000", "120236.991000", "120236.994000", "120236.997000", "120237.001000", "120237.003000", "120237.006000", "120237.009000", "120237.012000", "120237.015000", "120237.018000", "120237.021000", "120237.024000", "120237.027000", "120237.030000", "120237.033000", "120237.036000", "120237.038000", "120237.041000", "120237.044000", "120237.047000", "120316.959000", "120316.962000", "120316.965000", "120316.968000", "120316.971000", "120316.974000", "120316.977000", "120316.980000", "120316.984000", "120316.987000", "120316.990000", "120316.993000", "120316.996000", "120317.000000", "120317.003000", "120317.006000", "120317.009000", "120317.012000", "120317.014000", "120317.017000", "120317.020000", "120317.023000", "120317.026000", "120317.029000", "120317.032000", "120317.035000", "120317.038000", "120317.041000", "120317.044000", "120317.047000", "120317.050000", "120356.958000", "120356.961000", "120356.964000", "120356.967000", "120356.970000", "120356.973000", "120356.976000", "120356.978000", "120356.981000", "120356.984000", "120356.987000", "120356.990000", "120356.993000", "120356.996000", "120357.000000", "120357.003000", "120357.006000", "120357.008000", "120357.011000", "120357.014000", "120357.017000", "120357.020000", "120357.023000", "120357.026000", "120357.029000", "120357.032000", "120357.035000", "120357.038000", "120357.041000", "120357.044000", "120357.047000", "120436.958000", "120436.961000", "120436.964000", "120436.967000", "120436.981000", "120436.984000", "120436.987000", "120436.990000", "120436.993000", "120436.996000", "120437.000000", "120437.003000", "120437.006000", "120437.009000", "120437.011000", "120437.015000", "120437.017000", "120437.020000", "120437.023000", "120437.026000", "120437.029000", "120437.032000", "120437.035000", "120437.038000", "120437.041000", "120437.044000", "120437.047000", "120437.050000", "120437.052000", "120437.055000", "120437.058000", "120437.061000", "120516.959000", "120516.974000", "120516.977000", "120516.981000", "120516.984000", "120516.987000", "120516.989000", "120516.992000", "120516.995000", "120516.998000", "120517.002000", "120517.005000", "120517.008000", "120517.011000", "120517.014000", "120517.017000", "120517.020000", "120517.022000", "120517.025000", "120517.028000", "120517.031000", "120517.034000", "120517.037000", "120517.040000", "120517.043000", "120517.056000", "120517.059000", "120517.062000", "120517.065000", "120517.068000", "120517.071000", "120536.959000", "120536.962000", "120536.965000", "120536.968000", "120536.971000", "120536.974000", "120536.977000", "120536.980000", "120536.983000", "120536.986000", "120536.989000", "120536.992000", "120536.995000", "120536.997000", "120537.001000", "120616.958000", "120616.961000", "120616.964000", "120616.967000", "120616.972000", "120616.975000", "120616.978000", "120616.981000", "120616.984000", "120616.987000", "120616.989000", "120616.992000", "120616.995000", "120617.000000", "120617.003000", "120617.005000", "120617.012000", "120617.015000", "120617.018000", "120617.021000", "120617.024000", "120617.027000", "120617.030000", "120617.033000", "120617.036000", "120617.039000", "120617.042000", "120617.044000", "120617.047000", "120617.050000", "120617.053000", "120617.056000", "120634.594000", "120634.598000", "120634.604000", "120634.607000", "120634.610000", "120634.614000", "120634.617000", "120634.621000", "120634.624000", "120634.628000", "120634.631000", "120634.638000", "120634.641000", "120634.644000"],
      "InstanceCreationTime": ["115916.962000", "115916.966000", "115916.969000", "115916.972000", "115916.975000", "115916.978000", "115916.981000", "115916.983000", "115916.986000", "115916.989000", "115916.992000", "115916.995000", "115916.998000", "115917.002000", "115917.005000", "115917.008000", "115917.011000", "115917.013000", "115917.016000", "115917.025000", "115917.028000", "115917.031000", "115917.034000", "115917.037000", "115917.039000", "115917.042000", "115917.045000", "115917.048000", "115917.051000", "115917.054000", "115917.057000", "115956.958000", "115956.961000", "115956.964000", "115956.967000", "115956.970000", "115956.972000", "115956.984000", "115956.987000", "115956.990000", "115956.993000", "115956.995000", "115956.998000", "115957.002000", "115957.005000", "115957.008000", "115957.011000", "115957.014000", "115957.016000", "115957.019000", "115957.022000", "115957.025000", "115957.028000", "115957.031000", "115957.034000", "115957.036000", "115957.039000", "115957.042000", "115957.045000", "115957.048000", "115957.051000", "115957.054000", "120036.959000", "120036.962000", "120036.965000", "120036.967000", "120036.970000", "120036.973000", "120036.976000", "120036.979000", "120036.982000", "120036.986000", "120036.989000", "120036.992000", "120036.995000", "120036.998000", "120037.001000", "120037.012000", "120037.014000", "120037.017000", "120037.020000", "120037.023000", "120037.026000", "120037.029000", "120037.032000", "120037.034000", "120037.037000", "120037.040000", "120037.043000", "120037.046000", "120037.049000", "120037.052000", "120037.055000", "120116.959000", "120116.962000", "120116.965000", "120116.968000", "120116.971000", "120116.973000", "120116.976000", "120116.979000", "120116.982000", "120116.985000", "120116.988000", "120116.991000", "120116.994000", "120116.997000", "120117.000000", "120117.003000", "120117.006000", "120117.009000", "120117.012000", "120117.015000", "120117.018000", "120117.021000", "120117.035000", "120117.037000", "120117.040000", "120117.043000", "120117.046000", "120117.049000", "120117.052000", "120117.055000", "120117.058000", "120156.958000", "120156.961000", "120156.971000", "120156.978000", "120156.983000", "120156.989000", "120156.993000", "120157.002000", "120157.005000", "120157.008000", "120157.017000", "120157.020000", "120157.023000", "120157.026000", "120157.029000", "120157.032000", "120157.036000", "120157.039000", "120157.041000", "120157.044000", "120157.047000", "120157.056000", "120157.059000", "120157.062000", "120157.065000", "120157.068000", "120157.071000", "120157.074000", "120157.077000", "120157.080000", "120157.083000", "120157.086000", "120236.959000", "120236.962000", "120236.965000", "120236.968000", "120236.971000", "120236.973000", "120236.976000", "120236.979000", "120236.982000", "120236.985000", "120236.988000", "120236.991000", "120236.994000", "120236.997000", "120237.001000", "120237.003000", "120237.006000", "120237.009000", "120237.012000", "120237.015000", "120237.018000", "120237.021000", "120237.024000", "120237.027000", "120237.030000", "120237.033000", "120237.036000", "120237.038000", "120237.041000", "120237.044000", "120237.047000", "120316.959000", "120316.962000", "120316.965000", "120316.968000", "120316.971000", "120316.974000", "120316.977000", "120316.980000", "120316.984000", "120316.987000", "120316.990000", "120316.993000", "120316.996000", "120317.000000", "120317.003000", "120317.006000", "120317.009000", "120317.012000", "120317.014000", "120317.017000", "120317.020000", "120317.023000", "120317.026000", "120317.029000", "120317.032000", "120317.035000", "120317.038000", "120317.041000", "120317.044000", "120317.047000", "120317.050000", "120356.958000", "120356.961000", "120356.964000", "120356.967000", "120356.970000", "120356.973000", "120356.976000", "120356.978000", "120356.981000", "120356.984000", "120356.987000", "120356.990000", "120356.993000", "120356.996000", "120357.000000", "120357.003000", "120357.006000", "120357.008000", "120357.011000", "120357.014000", "120357.017000", "120357.020000", "120357.023000", "120357.026000", "120357.029000", "120357.032000", "120357.035000", "120357.038000", "120357.041000", "120357.044000", "120357.047000", "120436.958000", "120436.961000", "120436.964000", "120436.967000", "120436.981000", "120436.984000", "120436.987000", "120436.990000", "120436.993000", "120436.996000", "120437.000000", "120437.003000", "120437.006000", "120437.009000", "120437.011000", "120437.015000", "120437.017000", "120437.020000", "120437.023000", "120437.026000", "120437.029000", "120437.032000", "120437.035000", "120437.038000", "120437.041000", "120437.044000", "120437.047000", "120437.050000", "120437.052000", "120437.055000", "120437.058000", "120437.061000", "120516.959000", "120516.974000", "120516.977000", "120516.981000", "120516.984000", "120516.987000", "120516.989000", "120516.992000", "120516.995000", "120516.998000", "120517.002000", "120517.005000", "120517.008000", "120517.011000", "120517.014000", "120517.017000", "120517.020000", "120517.022000", "120517.025000", "120517.028000", "120517.031000", "120517.034000", "120517.037000", "120517.040000", "120517.043000", "120517.056000", "120517.059000", "120517.062000", "120517.065000", "120517.068000", "120517.071000", "120536.959000", "120536.962000", "120536.965000", "120536.968000", "120536.971000", "120536.974000", "120536.977000", "120536.980000", "120536.983000", "120536.986000", "120536.989000", "120536.992000", "120536.995000", "120536.997000", "120537.001000", "120616.958000", "120616.961000", "120616.964000", "120616.967000", "120616.972000", "120616.975000", "120616.978000", "120616.981000", "120616.984000", "120616.987000", "120616.989000", "120616.992000", "120616.995000", "120617.000000", "120617.003000", "120617.005000", "120617.012000", "120617.015000", "120617.018000", "120617.021000", "120617.024000", "120617.027000", "120617.030000", "120617.033000", "120617.036000", "120617.039000", "120617.042000", "120617.044000", "120617.047000", "120617.050000", "120617.053000", "120617.056000", "120634.594000", "120634.598000", "120634.604000", "120634.607000", "120634.610000", "120634.614000", "120634.617000", "120634.621000", "120634.624000", "120634.628000", "120634.631000", "120634.638000", "120634.641000", "120634.644000"],
      "InstanceNumber": [1, 2, 3, 4, 5, 6, 7, 8, 9, 10, 11, 12, 13, 14, 15, 16, 17, 18, 19, 20, 21, 22, 23, 24, 25, 26, 27, 28, 29, 30, 31, 32, 33, 34, 35, 36, 37, 38, 39, 40, 41, 42, 43, 44, 45, 46, 47, 48, 49, 50, 51, 52, 53, 54, 55, 56, 57, 58, 59, 60, 61, 62, 63, 64, 65, 66, 67, 68, 69, 70, 71, 72, 73, 74, 75, 76, 77, 78, 79, 80, 81, 82, 83, 84, 85, 86, 87, 88, 89, 90, 91, 92, 93, 94, 95, 96, 97, 98, 99, 100, 101, 102, 103, 104, 105, 106, 107, 108, 109, 110, 111, 112, 113, 114, 115, 116, 117, 118, 119, 120, 121, 122, 123, 124, 125, 126, 127, 128, 129, 130, 131, 132, 133, 134, 135, 136, 137, 138, 139, 140, 141, 142, 143, 144, 145, 146, 147, 148, 149, 150, 151, 152, 153, 154, 155, 156, 157, 158, 159, 160, 161, 162, 163, 164, 165, 166, 167, 168, 169, 170, 171, 172, 173, 174, 175, 176, 177, 178, 179, 180, 181, 182, 183, 184, 185, 186, 187, 188, 189, 190, 191, 192, 193, 194, 195, 196, 197, 198, 199, 200, 201, 202, 203, 204, 205, 206, 207, 208, 209, 210, 211, 212, 213, 214, 215, 216, 217, 218, 219, 220, 221, 222, 223, 224, 225, 226, 227, 228, 229, 230, 231, 232, 233, 234, 235, 236, 237, 238, 239, 240, 241, 242, 243, 244, 245, 246, 247, 248, 249, 250, 251, 252, 253, 254, 255, 256, 257, 258, 259, 260, 261, 262, 263, 264, 265, 266, 267, 268, 269, 270, 271, 272, 273, 274, 275, 276, 277, 278, 279, 280, 281, 282, 283, 284, 285, 286, 287, 288, 289, 290, 291, 292, 293, 294, 295, 296, 297, 298, 299, 300, 301, 302, 303, 304, 305, 306, 307, 308, 309, 310, 311, 312, 313, 314, 315, 316, 317, 318, 319, 320, 321, 322, 323, 324, 325, 326, 327, 328, 329, 330, 331, 332, 333, 334, 335, 336, 337, 338, 339, 340, 341, 342, 343, 344, 345, 346, 347, 348, 349, 350, 351, 352, 353, 354, 355, 356, 357, 358, 359, 360, 361, 362, 363, 364, 365, 366, 367, 368, 369, 370, 371, 372, 373],
