{
  "AcquisitionMatrixPE": 108,
  "AcquisitionNumber": 1,
  "AcquisitionTime": "11:30:29.657500",
  "BandwidthPerPixelPhaseEncode": 15.964,
  "BaseResolution": 108,
  "BodyPartExamined": "BRAIN",
  "ConsistencyInfo": "N4_VE11C_LATEST_20160120",
  "ConversionSoftware": "dcm2niix",
  "ConversionSoftwareVersion": "v1.0.20180622 GCC6.3.0",
  "DerivedVendorReportedEchoSpacing": 0.000580009,
  "DeviceSerialNumber": "66054",
  "DwellTime": 2.1e-06,
  "EchoTime": 0.031,
  "EchoTrainLength": 95,
  "EffectiveEchoSpacing": 0.000580009,
  "FlipAngle": 64,
  "ImageOrientationPatientDICOM": [0.989506, -0.142727, -0.0225135, 0.117991, 0.888094, -0.44426],
  "ImageType": [
    "ORIGINAL",
    "PRIMARY",
    "M",
    "ND",
    "MOSAIC"
],
  "InPlanePhaseEncodingDirectionDICOM": "COL",
  "InstitutionAddress": "Chemin_des_Mines_9_Geneve_District_CH_1211",
  "InstitutionName": "Fondation_Campus_Biotech_Geneva",
  "InstitutionalDepartmentName": "Department",
  "MRAcquisitionType": "2D",
  "MagneticFieldStrength": 3,
  "Manufacturer": "Siemens",
  "ManufacturersModelName": "Prisma",
  "Modality": "MR",
  "MultibandAccelerationFactor": 4,
  "PartialFourier": 0.875,
  "PatientPosition": "HFS",
  "PercentPhaseFOV": 100,
  "PhaseEncodingDirection": "j-",
  "PhaseEncodingSteps": 95,
  "PhaseResolution": 1,
  "PixelBandwidth": 2205,
  "ProcedureStepDescription": "J.DRM_Michael",
  "ProtocolName": "Run2_bold_s4_TR1.28",
  "PulseSequenceDetails": "%SiemensSeq%_ep2d_bold",
  "ReceiveCoilActiveElements": "HC1-7;NC1,2",
  "ReceiveCoilName": "HeadNeck_64",
  "ReconMatrixPE": 108,
  "RepetitionTime": 1.28,
  "SAR": 0.0752291,
  "ScanOptions": "PFP_FS",
  "ScanningSequence": "EP",
  "SequenceName": "_epfid2d1_108",
  "SequenceVariant": "SK",
  "SeriesDescription": "Run2_bold_s4_TR1.28",
  "SeriesNumber": 6,
  "ShimSetting": [-1259, -11646, 6460, 745, 111, 2, -55, 48],
  "SliceThickness": 2,
  "SliceTiming": [0.945, 0, 0.63, 0.0775, 0.7075, 0.1575, 0.7875, 0.235, 0.865, 0.3925, 1.0225, 0.4725, 1.1025, 0.55, 1.18, 0.315, 0.945, 0, 0.63, 0.0775, 0.7075, 0.1575, 0.7875, 0.235, 0.865, 0.3925, 1.0225, 0.4725, 1.1025, 0.55, 1.18, 0.315, 0.945, 0, 0.63, 0.0775, 0.7075, 0.1575, 0.7875, 0.235, 0.865, 0.3925, 1.0225, 0.4725, 1.1025, 0.55, 1.18, 0.315, 0.945, 0, 0.63, 0.0775, 0.7075, 0.1575, 0.7875, 0.235, 0.865, 0.3925, 1.0225, 0.4725, 1.1025, 0.55, 1.18, 0.315],
  "SoftwareVersions": "syngo_MR_E11",
  "SpacingBetweenSlices": 2,
  "StationName": "AWP66054",
  "TaskName": "main",
  "TotalReadoutTime": 0.0620609,
  "TxRefAmp": 254.456,
  "dcmmeta_affine": [
    [-1.969849944114685, 0.23489046096801758, -0.16680392622947693, 94.48980712890625],
    [0.28413262963294983, 1.767965316772461, -0.873882532119751, -72.71466827392578],
    [-0.0448184460401535, 0.8844059705734253, 1.7912302017211914, -88.05420684814453],
    [0.0, 0.0, 0.0, 1.0]
],
  "dcmmeta_reorient_transform": [
    [0.0, -1.0, 0.0, 107.0],
    [1.0, 0.0, 0.0, 0.0],
    [0.0, 0.0, 1.0, 0.0],
    [0.0, 0.0, 0.0, 1.0]
],
  "dcmmeta_shape": [108, 108, 64, 373],
  "dcmmeta_slice_dim": 2,
  "dcmmeta_version": 0.6,
  "global": {
    "const": {
      "AccessionNumber": "",
      "AcquisitionMatrix": [108, 0, 0, 108],
      "AngioFlag": "N",
      "BitsAllocated": 16,
      "BitsStored": 12,
      "BodyPartExamined": "BRAIN",
      "Columns": 864,
      "EchoNumbers": 1,
      "EchoTime": 31.0,
      "EchoTrainLength": 95,
      "FlipAngle": 64.0,
      "HighBit": 11,
      "ImageOrientationPatient": [0.98950599906398, -0.1427270902647, -0.0225134520004, 0.11799148349392, 0.88809419821577, -0.4442597268698],
      "ImagePositionPatient": [-953.01495915909, -677.34638217032, 357.82404983744],
      "ImageType": [
        "ORIGINAL",
        "PRIMARY",
        "M",
        "ND",
        "MOSAIC"
],
      "ImagedNucleus": "1H",
      "ImagingFrequency": 123.257423,
      "InPlanePhaseEncodingDirection": "COL",
      "MRAcquisitionType": "2D",
      "MagneticFieldStrength": 3.0,
      "Manufacturer": "SIEMENS",
      "ManufacturerModelName": "Prisma",
      "Modality": "MR",
      "NumberOfAverages": 1.0,
      "NumberOfPhaseEncodingSteps": 95,
      "PercentPhaseFieldOfView": 100.0,
      "PercentSampling": 100.0,
      "PerformedProcedureStepStartTime": "105649.622000",
      "PhotometricInterpretation": "MONOCHROME2",
      "PixelBandwidth": 2205.0,
      "PixelRepresentation": 0,
      "PixelSpacing": [1.990740776062, 1.990740776062],
      "PositionReferenceIndicator": "",
      "ProtocolName": "Run2_bold_s4_TR1.28",
      "RepetitionTime": 1280.0,
      "Rows": 864,
      "SAR": 0.07522911551108,
      "SamplesPerPixel": 1,
      "ScanOptions": [
        "PFP",
        "FS"
],
      "ScanningSequence": "EP",
      "SequenceName": "*epfid2d1_108",
      "SequenceVariant": "SK",
      "SeriesDescription": "Run2_bold_s4_TR1.28",
      "SeriesNumber": 6,
      "SeriesTime": "113100.896000",
      "SliceLocation": -54.971278900424,
      "SliceThickness": 2.0,
      "SmallestImagePixelValue": 0,
      "SoftwareVersions": "syngo MR E11",
      "SpacingBetweenSlices": 1.9999999918076,
      "SpecificCharacterSet": "ISO_IR 100",
      "StudyID": "1",
      "StudyTime": "105649.554000",
      "TransmitCoilName": "Body",
      "VariableFlipAngleFlag": "N",
      "WindowCenterWidthExplanation": "Algo1",
      "dBdt": 0.0},
    "slices": {}
  },
  "time": {
    "samples": {
      "AcquisitionNumber": [1, 2, 3, 4, 5, 6, 7, 8, 9, 10, 11, 12, 13, 14, 15, 16, 17, 18, 19, 20, 21, 22, 23, 24, 25, 26, 27, 28, 29, 30, 31, 32, 33, 34, 35, 36, 37, 38, 39, 40, 41, 42, 43, 44, 45, 46, 47, 48, 49, 50, 51, 52, 53, 54, 55, 56, 57, 58, 59, 60, 61, 62, 63, 64, 65, 66, 67, 68, 69, 70, 71, 72, 73, 74, 75, 76, 77, 78, 79, 80, 81, 82, 83, 84, 85, 86, 87, 88, 89, 90, 91, 92, 93, 94, 95, 96, 97, 98, 99, 100, 101, 102, 103, 104, 105, 106, 107, 108, 109, 110, 111, 112, 113, 114, 115, 116, 117, 118, 119, 120, 121, 122, 123, 124, 125, 126, 127, 128, 129, 130, 131, 132, 133, 134, 135, 136, 137, 138, 139, 140, 141, 142, 143, 144, 145, 146, 147, 148, 149, 150, 151, 152, 153, 154, 155, 156, 157, 158, 159, 160, 161, 162, 163, 164, 165, 166, 167, 168, 169, 170, 171, 172, 173, 174, 175, 176, 177, 178, 179, 180, 181, 182, 183, 184, 185, 186, 187, 188, 189, 190, 191, 192, 193, 194, 195, 196, 197, 198, 199, 200, 201, 202, 203, 204, 205, 206, 207, 208, 209, 210, 211, 212, 213, 214, 215, 216, 217, 218, 219, 220, 221, 222, 223, 224, 225, 226, 227, 228, 229, 230, 231, 232, 233, 234, 235, 236, 237, 238, 239, 240, 241, 242, 243, 244, 245, 246, 247, 248, 249, 250, 251, 252, 253, 254, 255, 256, 257, 258, 259, 260, 261, 262, 263, 264, 265, 266, 267, 268, 269, 270, 271, 272, 273, 274, 275, 276, 277, 278, 279, 280, 281, 282, 283, 284, 285, 286, 287, 288, 289, 290, 291, 292, 293, 294, 295, 296, 297, 298, 299, 300, 301, 302, 303, 304, 305, 306, 307, 308, 309, 310, 311, 312, 313, 314, 315, 316, 317, 318, 319, 320, 321, 322, 323, 324, 325, 326, 327, 328, 329, 330, 331, 332, 333, 334, 335, 336, 337, 338, 339, 340, 341, 342, 343, 344, 345, 346, 347, 348, 349, 350, 351, 352, 353, 354, 355, 356, 357, 358, 359, 360, 361, 362, 363, 364, 365, 366, 367, 368, 369, 370, 371, 372, 373],
      "AcquisitionTime": ["113029.657500", "113030.937500", "113032.217500", "113033.497500", "113034.777500", "113036.057500", "113037.337500", "113038.617500", "113039.897500", "113041.177500", "113042.457500", "113043.737500", "113045.017500", "113046.297500", "113047.577500", "113048.857500", "113050.137500", "113051.417500", "113052.697500", "113053.977500", "113055.257500", "113056.537500", "113057.817500", "113059.097500", "113100.377500", "113101.657500", "113102.937500", "113104.217500", "113105.497500", "113106.777500", "113108.057500", "113109.337500", "113110.617500", "113111.897500", "113113.177500", "113114.457500", "113115.737500", "113117.017500", "113118.297500", "113119.577500", "113120.857500", "113122.137500", "113123.417500", "113124.697500", "113125.977500", "113127.257500", "113128.537500", "113129.817500", "113131.097500", "113132.377500", "113133.657500", "113134.937500", "113136.217500", "113137.497500", "113138.777500", "113140.057500", "113141.337500", "113142.617500", "113143.897500", "113145.177500", "113146.457500", "113147.737500", "113149.017500", "113150.297500", "113151.577500", "113152.857500", "113154.137500", "113155.417500", "113156.697500", "113157.977500", "113159.257500", "113200.537500", "113201.817500", "113203.097500", "113204.377500", "113205.657500", "113206.937500", "113208.217500", "113209.497500", "113210.777500", "113212.057500", "113213.337500", "113214.617500", "113215.897500", "113217.177500", "113218.457500", "113219.737500", "113221.017500", "113222.297500", "113223.577500", "113224.857500", "113226.137500", "113227.417500", "113228.697500", "113229.977500", "113231.257500", "113232.537500", "113233.817500", "113235.097500", "113236.377500", "113237.657500", "113238.937500", "113240.217500", "113241.497500", "113242.777500", "113244.057500", "113245.337500", "113246.617500", "113247.897500", "113249.177500", "113250.457500", "113251.737500", "113253.017500", "113254.297500", "113255.577500", "113256.857500", "113258.137500", "113259.417500", "113300.697500", "113301.977500", "113303.257500", "113304.537500", "113305.817500", "113307.097500", "113308.377500", "113309.657500", "113310.937500", "113312.217500", "113313.497500", "113314.777500", "113316.057500", "113317.337500", "113318.617500", "113319.897500", "113321.177500", "113322.457500", "113323.737500", "113325.017500", "113326.297500", "113327.577500", "113328.857500", "113330.137500", "113331.417500", "113332.697500", "113333.977500", "113335.257500", "113336.537500", "113337.817500", "113339.097500", "113340.377500", "113341.657500", "113342.937500", "113344.217500", "113345.497500", "113346.777500", "113348.057500", "113349.337500", "113350.617500", "113351.897500", "113353.177500", "113354.457500", "113355.737500", "113357.017500", "113358.297500", "113359.577500", "113400.857500", "113402.137500", "113403.417500", "113404.697500", "113405.977500", "113407.257500", "113408.537500", "113409.817500", "113411.097500", "113412.377500", "113413.657500", "113414.937500", "113416.217500", "113417.497500", "113418.777500", "113420.057500", "113421.337500", "113422.617500", "113423.897500", "113425.177500", "113426.457500", "113427.737500", "113429.017500", "113430.297500", "113431.577500", "113432.857500", "113434.137500", "113435.417500", "113436.697500", "113437.977500", "113439.257500", "113440.537500", "113441.817500", "113443.097500", "113444.377500", "113445.657500", "113446.937500", "113448.217500", "113449.497500", "113450.777500", "113452.057500", "113453.337500", "113454.617500", "113455.897500", "113457.177500", "113458.457500", "113459.737500", "113501.017500", "113502.297500", "113503.577500", "113504.857500", "113506.137500", "113507.417500", "113508.697500", "113509.977500", "113511.257500", "113512.537500", "113513.817500", "113515.097500", "113516.377500", "113517.657500", "113518.937500", "113520.217500", "113521.497500", "113522.777500", "113524.057500", "113525.337500", "113526.617500", "113527.897500", "113529.177500", "113530.457500", "113531.737500", "113533.017500", "113534.297500", "113535.577500", "113536.857500", "113538.137500", "113539.417500", "113540.697500", "113541.977500", "113543.257500", "113544.537500", "113545.817500", "113547.097500", "113548.377500", "113549.657500", "113550.937500", "113552.217500", "113553.497500", "113554.777500", "113556.057500", "113557.337500", "113558.617500", "113559.897500", "113601.177500", "113602.457500", "113603.737500", "113605.017500", "113606.297500", "113607.577500", "113608.857500", "113610.137500", "113611.417500", "113612.697500", "113613.977500", "113615.257500", "113616.537500", "113617.817500", "113619.097500", "113620.377500", "113621.657500", "113622.937500", "113624.217500", "113625.497500", "113626.777500", "113628.057500", "113629.337500", "113630.617500", "113631.897500", "113633.177500", "113634.457500", "113635.737500", "113637.017500", "113638.297500", "113639.577500", "113640.857500", "113642.137500", "113643.417500", "113644.697500", "113645.977500", "113647.257500", "113648.537500", "113649.817500", "113651.097500", "113652.377500", "113653.657500", "113654.937500", "113656.217500", "113657.497500", "113658.777500", "113700.057500", "113701.337500", "113702.617500", "113703.897500", "113705.177500", "113706.457500", "113707.737500", "113709.017500", "113710.297500", "113711.577500", "113712.857500", "113714.137500", "113715.417500", "113716.697500", "113717.977500", "113719.257500", "113720.537500", "113721.817500", "113723.097500", "113724.377500", "113725.657500", "113726.937500", "113728.217500", "113729.497500", "113730.777500", "113732.057500", "113733.337500", "113734.617500", "113735.897500", "113737.177500", "113738.457500", "113739.737500", "113741.017500", "113742.297500", "113743.577500", "113744.857500", "113746.137500", "113747.417500", "113748.697500", "113749.977500", "113751.257500", "113752.537500", "113753.817500", "113755.097500", "113756.377500", "113757.657500", "113758.937500", "113800.217500", "113801.497500", "113802.777500", "113804.057500", "113805.337500", "113806.617500", "113807.897500", "113809.177500", "113810.457500", "113811.737500", "113813.017500", "113814.297500", "113815.577500", "113816.857500", "113818.137500", "113819.417500", "113820.697500", "113821.977500", "113823.257500", "113824.537500", "113825.817500"],
      "ContentTime": ["113100.900000", "113100.904000", "113100.911000", "113100.914000", "113100.926000", "113100.940000", "113100.943000", "113100.946000", "113100.949000", "113100.952000", "113100.955000", "113100.958000", "113100.961000", "113100.964000", "113100.967000", "113100.970000", "113100.980000", "113100.983000", "113100.986000", "113100.988000", "113100.991000", "113100.994000", "113100.997000", "113101.001000", "113140.895000", "113140.898000", "113140.901000", "113140.904000", "113140.907000", "113140.919000", "113140.922000", "113140.925000", "113140.927000", "113140.930000", "113140.933000", "113140.936000", "113140.939000", "113140.942000", "113140.945000", "113140.948000", "113140.951000", "113140.953000", "113140.956000", "113140.959000", "113140.962000", "113140.965000", "113140.968000", "113140.971000", "113140.973000", "113140.976000", "113140.979000", "113140.982000", "113140.985000", "113140.988000", "113140.991000", "113220.895000", "113220.898000", "113220.901000", "113220.904000", "113220.907000", "113220.909000", "113220.912000", "113220.915000", "113220.918000", "113220.921000", "113220.924000", "113220.927000", "113220.930000", "113220.933000", "113220.936000", "113220.939000", "113220.941000", "113220.944000", "113220.947000", "113220.950000", "113220.953000", "113220.956000", "113220.959000", "113220.962000", "113220.965000", "113220.967000", "113220.970000", "113220.973000", "113220.976000", "113220.980000", "113220.982000", "113300.895000", "113300.898000", "113300.901000", "113300.916000", "113300.919000", "113300.922000", "113300.925000", "113300.928000", "113300.931000", "113300.934000", "113300.936000", "113300.939000", "113300.942000", "113300.945000", "113300.948000", "113300.951000", "113300.954000", "113300.957000", "113300.966000", "113300.968000", "113300.971000", "113300.974000", "113300.977000", "113300.980000", "113300.983000", "113300.986000", "113300.989000", "113300.992000", "113300.995000", "113300.998000", "113301.002000", "113301.005000", "113340.895000", "113340.898000", "113340.901000", "113340.904000", "113340.907000", "113340.910000", "113340.913000", "113340.916000", "113340.918000", "113340.921000", "113340.924000", "113340.927000", "113340.930000", "113340.933000", "113340.936000", "113340.939000", "113340.942000", "113340.944000", "113340.947000", "113340.950000", "113340.953000", "113340.956000", "113340.959000", "113340.962000", "113340.965000", "113340.968000", "113340.971000", "113340.973000", "113340.976000", "113340.979000", "113340.982000", "113420.895000", "113420.898000", "113420.901000", "113420.904000", "113420.907000", "113420.910000", "113420.913000", "113420.915000", "113420.918000", "113420.921000", "113420.924000", "113420.927000", "113420.930000", "113420.933000", "113420.936000", "113420.939000", "113420.942000", "113420.945000", "113420.948000", "113420.950000", "113420.953000", "113420.956000", "113420.959000", "113420.962000", "113420.971000", "113420.974000", "113420.977000", "113420.980000", "113420.982000", "113420.985000", "113420.988000", "113500.895000", "113500.898000", "113500.901000", "113500.904000", "113500.907000", "113500.910000", "113500.913000", "113500.916000", "113500.919000", "113500.922000", "113500.925000", "113500.929000", "113500.932000", "113500.935000", "113500.938000", "113500.941000", "113500.944000", "113500.947000", "113500.950000", "113500.953000", "113500.956000", "113500.959000", "113500.962000", "113500.965000", "113500.969000", "113500.972000", "113500.975000", "113500.978000", "113500.981000", "113500.984000", "113500.986000", "113540.895000", "113540.898000", "113540.901000", "113540.904000", "113540.907000", "113540.910000", "113540.913000", "113540.916000", "113540.919000", "113540.922000", "113540.925000", "113540.928000", "113540.931000", "113540.933000", "113540.936000", "113540.939000", "113540.942000", "113540.945000", "113540.948000", "113540.951000", "113540.954000", "113540.957000", "113540.960000", "113540.963000", "113540.966000", "113540.968000", "113540.971000", "113540.974000", "113540.977000", "113540.980000", "113540.983000", "113540.986000", "113620.895000", "113620.898000", "113620.901000", "113620.904000", "113620.907000", "113620.910000", "113620.913000", "113620.916000", "113620.919000", "113620.922000", "113620.925000", "113620.928000", "113620.931000", "113620.934000", "113620.937000", "113620.939000", "113620.942000", "113620.945000", "113620.948000", "113620.951000", "113620.954000", "113620.957000", "113620.960000", "113620.963000", "113620.966000", "113620.969000", "113620.972000", "113620.975000", "113620.977000", "113620.980000", "113620.983000", "113700.895000", "113700.898000", "113700.901000", "113700.904000", "113700.907000", "113700.910000", "113700.913000", "113700.916000", "113700.919000", "113700.922000", "113700.925000", "113700.928000", "113700.930000", "113700.934000", "113700.937000", "113700.939000", "113700.942000", "113700.945000", "113700.948000", "113700.951000", "113700.954000", "113700.957000", "113700.960000", "113700.963000", "113700.966000", "113700.969000", "113700.972000", "113700.975000", "113700.978000", "113700.981000", "113700.984000", "113740.895000", "113740.898000", "113740.901000", "113740.904000", "113740.907000", "113740.910000", "113740.913000", "113740.916000", "113740.919000", "113740.922000", "113740.925000", "113740.928000", "113740.931000", "113740.933000", "113740.936000", "113740.939000", "113740.942000", "113740.945000", "113740.948000", "113740.951000", "113740.954000", "113740.957000", "113740.960000", "113740.962000", "113740.965000", "113740.968000", "113740.971000", "113740.974000", "113740.977000", "113740.980000", "113740.983000", "113820.895000", "113820.898000", "113820.901000", "113820.904000", "113820.907000", "113820.917000", "113820.919000", "113820.922000", "113820.925000", "113820.928000", "113820.931000", "113820.934000", "113820.937000", "113820.940000", "113820.943000", "113820.946000", "113820.949000", "113820.951000", "113820.954000", "113820.957000", "113820.960000", "113820.963000", "113820.966000", "113820.969000", "113820.972000", "113820.975000", "113820.978000", "113820.980000", "113820.983000", "113820.986000", "113820.989000", "113820.992000", "113827.058000", "113827.062000", "113827.065000", "113827.068000", "113827.071000"],
      "InstanceCreationTime": ["113100.900000", "113100.904000", "113100.911000", "113100.914000", "113100.926000", "113100.940000", "113100.943000", "113100.946000", "113100.949000", "113100.952000", "113100.955000", "113100.958000", "113100.961000", "113100.964000", "113100.967000", "113100.970000", "113100.980000", "113100.983000", "113100.986000", "113100.988000", "113100.991000", "113100.994000", "113100.997000", "113101.001000", "113140.895000", "113140.898000", "113140.901000", "113140.904000", "113140.907000", "113140.919000", "113140.922000", "113140.925000", "113140.927000", "113140.930000", "113140.933000", "113140.936000", "113140.939000", "113140.942000", "113140.945000", "113140.948000", "113140.951000", "113140.953000", "113140.956000", "113140.959000", "113140.962000", "113140.965000", "113140.968000", "113140.971000", "113140.973000", "113140.976000", "113140.979000", "113140.982000", "113140.985000", "113140.988000", "113140.991000", "113220.895000", "113220.898000", "113220.901000", "113220.904000", "113220.907000", "113220.909000", "113220.912000", "113220.915000", "113220.918000", "113220.921000", "113220.924000", "113220.927000", "113220.930000", "113220.933000", "113220.936000", "113220.939000", "113220.941000", "113220.944000", "113220.947000", "113220.950000", "113220.953000", "113220.956000", "113220.959000", "113220.962000", "113220.965000", "113220.967000", "113220.970000", "113220.973000", "113220.976000", "113220.980000", "113220.982000", "113300.895000", "113300.898000", "113300.901000", "113300.916000", "113300.919000", "113300.922000", "113300.925000", "113300.928000", "113300.931000", "113300.934000", "113300.936000", "113300.939000", "113300.942000", "113300.945000", "113300.948000", "113300.951000", "113300.954000", "113300.957000", "113300.966000", "113300.968000", "113300.971000", "113300.974000", "113300.977000", "113300.980000", "113300.983000", "113300.986000", "113300.989000", "113300.992000", "113300.995000", "113300.998000", "113301.002000", "113301.005000", "113340.895000", "113340.898000", "113340.901000", "113340.904000", "113340.907000", "113340.910000", "113340.913000", "113340.916000", "113340.918000", "113340.921000", "113340.924000", "113340.927000", "113340.930000", "113340.933000", "113340.936000", "113340.939000", "113340.942000", "113340.944000", "113340.947000", "113340.950000", "113340.953000", "113340.956000", "113340.959000", "113340.962000", "113340.965000", "113340.968000", "113340.971000", "113340.973000", "113340.976000", "113340.979000", "113340.982000", "113420.895000", "113420.898000", "113420.901000", "113420.904000", "113420.907000", "113420.910000", "113420.913000", "113420.915000", "113420.918000", "113420.921000", "113420.924000", "113420.927000", "113420.930000", "113420.933000", "113420.936000", "113420.939000", "113420.942000", "113420.945000", "113420.948000", "113420.950000", "113420.953000", "113420.956000", "113420.959000", "113420.962000", "113420.971000", "113420.974000", "113420.977000", "113420.980000", "113420.982000", "113420.985000", "113420.988000", "113500.895000", "113500.898000", "113500.901000", "113500.904000", "113500.907000", "113500.910000", "113500.913000", "113500.916000", "113500.919000", "113500.922000", "113500.925000", "113500.929000", "113500.932000", "113500.935000", "113500.938000", "113500.941000", "113500.944000", "113500.947000", "113500.950000", "113500.953000", "113500.956000", "113500.959000", "113500.962000", "113500.965000", "113500.969000", "113500.972000", "113500.975000", "113500.978000", "113500.981000", "113500.984000", "113500.986000", "113540.895000", "113540.898000", "113540.901000", "113540.904000", "113540.907000", "113540.910000", "113540.913000", "113540.916000", "113540.919000", "113540.922000", "113540.925000", "113540.928000", "113540.931000", "113540.933000", "113540.936000", "113540.939000", "113540.942000", "113540.945000", "113540.948000", "113540.951000", "113540.954000", "113540.957000", "113540.960000", "113540.963000", "113540.966000", "113540.968000", "113540.971000", "113540.974000", "113540.977000", "113540.980000", "113540.983000", "113540.986000", "113620.895000", "113620.898000", "113620.901000", "113620.904000", "113620.907000", "113620.910000", "113620.913000", "113620.916000", "113620.919000", "113620.922000", "113620.925000", "113620.928000", "113620.931000", "113620.934000", "113620.937000", "113620.939000", "113620.942000", "113620.945000", "113620.948000", "113620.951000", "113620.954000", "113620.957000", "113620.960000", "113620.963000", "113620.966000", "113620.969000", "113620.972000", "113620.975000", "113620.977000", "113620.980000", "113620.983000", "113700.895000", "113700.898000", "113700.901000", "113700.904000", "113700.907000", "113700.910000", "113700.913000", "113700.916000", "113700.919000", "113700.922000", "113700.925000", "113700.928000", "113700.930000", "113700.934000", "113700.937000", "113700.939000", "113700.942000", "113700.945000", "113700.948000", "113700.951000", "113700.954000", "113700.957000", "113700.960000", "113700.963000", "113700.966000", "113700.969000", "113700.972000", "113700.975000", "113700.978000", "113700.981000", "113700.984000", "113740.895000", "113740.898000", "113740.901000", "113740.904000", "113740.907000", "113740.910000", "113740.913000", "113740.916000", "113740.919000", "113740.922000", "113740.925000", "113740.928000", "113740.931000", "113740.933000", "113740.936000", "113740.939000", "113740.942000", "113740.945000", "113740.948000", "113740.951000", "113740.954000", "113740.957000", "113740.960000", "113740.962000", "113740.965000", "113740.968000", "113740.971000", "113740.974000", "113740.977000", "113740.980000", "113740.983000", "113820.895000", "113820.898000", "113820.901000", "113820.904000", "113820.907000", "113820.917000", "113820.919000", "113820.922000", "113820.925000", "113820.928000", "113820.931000", "113820.934000", "113820.937000", "113820.940000", "113820.943000", "113820.946000", "113820.949000", "113820.951000", "113820.954000", "113820.957000", "113820.960000", "113820.963000", "113820.966000", "113820.969000", "113820.972000", "113820.975000", "113820.978000", "113820.980000", "113820.983000", "113820.986000", "113820.989000", "113820.992000", "113827.058000", "113827.062000", "113827.065000", "113827.068000", "113827.071000"],
      "InstanceNumber": [1, 2, 3, 4, 5, 6, 7, 8, 9, 10, 11, 12, 13, 14, 15, 16, 17, 18, 19, 20, 21, 22, 23, 24, 25, 26, 27, 28, 29, 30, 31, 32, 33, 34, 35, 36, 37, 38, 39, 40, 41, 42, 43, 44, 45, 46, 47, 48, 49, 50, 51, 52, 53, 54, 55, 56, 57, 58, 59, 60, 61, 62, 63, 64, 65, 66, 67, 68, 69, 70, 71, 72, 73, 74, 75, 76, 77, 78, 79, 80, 81, 82, 83, 84, 85, 86, 87, 88, 89, 90, 91, 92, 93, 94, 95, 96, 97, 98, 99, 100, 101, 102, 103, 104, 105, 106, 107, 108, 109, 110, 111, 112, 113, 114, 115, 116, 117, 118, 119, 120, 121, 122, 123, 124, 125, 126, 127, 128, 129, 130, 131, 132, 133, 134, 135, 136, 137, 138, 139, 140, 141, 142, 143, 144, 145, 146, 147, 148, 149, 150, 151, 152, 153, 154, 155, 156, 157, 158, 159, 160, 161, 162, 163, 164, 165, 166, 167, 168, 169, 170, 171, 172, 173, 174, 175, 176, 177, 178, 179, 180, 181, 182, 183, 184, 185, 186, 187, 188, 189, 190, 191, 192, 193, 194, 195, 196, 197, 198, 199, 200, 201, 202, 203, 204, 205, 206, 207, 208, 209, 210, 211, 212, 213, 214, 215, 216, 217, 218, 219, 220, 221, 222, 223, 224, 225, 226, 227, 228, 229, 230, 231, 232, 233, 234, 235, 236, 237, 238, 239, 240, 241, 242, 243, 244, 245, 246, 247, 248, 249, 250, 251, 252, 253, 254, 255, 256, 257, 258, 259, 260, 261, 262, 263, 264, 265, 266, 267, 268, 269, 270, 271, 272, 273, 274, 275, 276, 277, 278, 279, 280, 281, 282, 283, 284, 285, 286, 287, 288, 289, 290, 291, 292, 293, 294, 295, 296, 297, 298, 299, 300, 301, 302, 303, 304, 305, 306, 307, 308, 309, 310, 311, 312, 313, 314, 315, 316, 317, 318, 319, 320, 321, 322, 323, 324, 325, 326, 327, 328, 329, 330, 331, 332, 333, 334, 335, 336, 337, 338, 339, 340, 341, 342, 343, 344, 345, 346, 347, 348, 349, 350, 351, 352, 353, 354, 355, 356, 357, 358, 359, 360, 361, 362, 363, 364, 365, 366, 367, 368, 369, 370, 371, 372, 373],
