{
  "AcquisitionMatrixPE": 108,
  "AcquisitionNumber": 1,
  "AcquisitionTime": "12:11:3.370000",
  "BandwidthPerPixelPhaseEncode": 15.964,
  "BaseResolution": 108,
  "BodyPartExamined": "BRAIN",
  "ConsistencyInfo": "N4_VE11C_LATEST_20160120",
  "ConversionSoftware": "dcm2niix",
  "ConversionSoftwareVersion": "v1.0.20180622 GCC6.3.0",
  "DerivedVendorReportedEchoSpacing": 0.000580009,
  "DeviceSerialNumber": "66054",
  "DwellTime": 2.1e-06,
  "EchoTime": 0.031,
  "EchoTrainLength": 95,
  "EffectiveEchoSpacing": 0.000580009,
  "FlipAngle": 64,
  "ImageOrientationPatientDICOM": [0.989506, -0.142727, -0.0225135, 0.117991, 0.888094, -0.44426],
  "ImageType": [
    "ORIGINAL",
    "PRIMARY",
    "M",
    "ND",
    "MOSAIC"
],
  "InPlanePhaseEncodingDirectionDICOM": "COL",
  "InstitutionAddress": "Chemin_des_Mines_9_Geneve_District_CH_1211",
  "InstitutionName": "Fondation_Campus_Biotech_Geneva",
  "InstitutionalDepartmentName": "Department",
  "MRAcquisitionType": "2D",
  "MagneticFieldStrength": 3,
  "Manufacturer": "Siemens",
  "ManufacturersModelName": "Prisma",
  "Modality": "MR",
  "MultibandAccelerationFactor": 4,
  "PartialFourier": 0.875,
  "PatientPosition": "HFS",
  "PercentPhaseFOV": 100,
  "PhaseEncodingDirection": "j-",
  "PhaseEncodingSteps": 95,
  "PhaseResolution": 1,
  "PixelBandwidth": 2205,
  "ProcedureStepDescription": "J.DRM_Michael",
  "ProtocolName": "Run5_bold_s4_TR1.28",
  "PulseSequenceDetails": "%SiemensSeq%_ep2d_bold",
  "ReceiveCoilActiveElements": "HC1-7;NC1,2",
  "ReceiveCoilName": "HeadNeck_64",
  "ReconMatrixPE": 108,
  "RepetitionTime": 1.28,
  "SAR": 0.0752291,
  "ScanOptions": "PFP_FS",
  "ScanningSequence": "EP",
  "SequenceName": "_epfid2d1_108",
  "SequenceVariant": "SK",
  "SeriesDescription": "Run5_bold_s4_TR1.28",
  "SeriesNumber": 11,
  "ShimSetting": [-1259, -11646, 6460, 745, 111, 2, -55, 48],
  "SliceThickness": 2,
  "SliceTiming": [0.945, 0, 0.63, 0.08, 0.71, 0.1575, 0.7875, 0.2375, 0.8675, 0.395, 1.025, 0.4725, 1.1025, 0.5525, 1.1825, 0.315, 0.945, 0, 0.63, 0.08, 0.71, 0.1575, 0.7875, 0.2375, 0.8675, 0.395, 1.025, 0.4725, 1.1025, 0.5525, 1.1825, 0.315, 0.945, 0, 0.63, 0.08, 0.71, 0.1575, 0.7875, 0.2375, 0.8675, 0.395, 1.025, 0.4725, 1.1025, 0.5525, 1.1825, 0.315, 0.945, 0, 0.63, 0.08, 0.71, 0.1575, 0.7875, 0.2375, 0.8675, 0.395, 1.025, 0.4725, 1.1025, 0.5525, 1.1825, 0.315],
  "SoftwareVersions": "syngo_MR_E11",
  "SpacingBetweenSlices": 2,
  "StationName": "AWP66054",
  "TaskName": "main",
  "TotalReadoutTime": 0.0620609,
  "TxRefAmp": 254.456,
  "dcmmeta_affine": [
    [-1.969849944114685, 0.23489046096801758, -0.16680392622947693, 94.48980712890625],
    [0.28413262963294983, 1.767965316772461, -0.873882532119751, -72.71466827392578],
    [-0.0448184460401535, 0.8844059705734253, 1.7912302017211914, -88.05420684814453],
    [0.0, 0.0, 0.0, 1.0]
],
  "dcmmeta_reorient_transform": [
    [0.0, -1.0, 0.0, 107.0],
    [1.0, 0.0, 0.0, 0.0],
    [0.0, 0.0, 1.0, 0.0],
    [0.0, 0.0, 0.0, 1.0]
],
  "dcmmeta_shape": [108, 108, 64, 373],
  "dcmmeta_slice_dim": 2,
  "dcmmeta_version": 0.6,
  "global": {
    "const": {
      "AccessionNumber": "",
      "AcquisitionMatrix": [108, 0, 0, 108],
      "AngioFlag": "N",
      "BitsAllocated": 16,
      "BitsStored": 12,
      "BodyPartExamined": "BRAIN",
      "Columns": 864,
      "EchoNumbers": 1,
      "EchoTime": 31.0,
      "EchoTrainLength": 95,
      "FlipAngle": 64.0,
      "HighBit": 11,
      "ImageOrientationPatient": [0.98950599906398, -0.1427270902647, -0.0225134520004, 0.11799148349392, 0.88809419821577, -0.4442597268698],
      "ImagePositionPatient": [-953.01495915909, -677.34638217032, 357.82404983744],
      "ImageType": [
        "ORIGINAL",
        "PRIMARY",
        "M",
        "ND",
        "MOSAIC"
],
      "ImagedNucleus": "1H",
      "ImagingFrequency": 123.25745,
      "InPlanePhaseEncodingDirection": "COL",
      "MRAcquisitionType": "2D",
      "MagneticFieldStrength": 3.0,
      "Manufacturer": "SIEMENS",
      "ManufacturerModelName": "Prisma",
      "Modality": "MR",
      "NumberOfAverages": 1.0,
      "NumberOfPhaseEncodingSteps": 95,
      "PercentPhaseFieldOfView": 100.0,
      "PercentSampling": 100.0,
      "PerformedProcedureStepStartTime": "105649.622000",
      "PhotometricInterpretation": "MONOCHROME2",
      "PixelBandwidth": 2205.0,
      "PixelRepresentation": 0,
      "PixelSpacing": [1.990740776062, 1.990740776062],
      "PositionReferenceIndicator": "",
      "ProtocolName": "Run5_bold_s4_TR1.28",
      "RepetitionTime": 1280.0,
      "Rows": 864,
      "SAR": 0.07522911551108,
      "SamplesPerPixel": 1,
      "ScanOptions": [
        "PFP",
        "FS"
],
      "ScanningSequence": "EP",
      "SequenceName": "*epfid2d1_108",
      "SequenceVariant": "SK",
      "SeriesDescription": "Run5_bold_s4_TR1.28",
      "SeriesNumber": 11,
      "SeriesTime": "121141.052000",
      "SliceLocation": -54.971278900424,
      "SliceThickness": 2.0,
      "SmallestImagePixelValue": 0,
      "SoftwareVersions": "syngo MR E11",
      "SpacingBetweenSlices": 1.9999999918076,
      "SpecificCharacterSet": "ISO_IR 100",
      "StudyID": "1",
      "StudyTime": "105649.554000",
      "TransmitCoilName": "Body",
      "VariableFlipAngleFlag": "N",
      "WindowCenterWidthExplanation": "Algo1",
      "dBdt": 0.0},
    "slices": {}
  },
  "time": {
    "samples": {
      "AcquisitionNumber": [1, 2, 3, 4, 5, 6, 7, 8, 9, 10, 11, 12, 13, 14, 15, 16, 17, 18, 19, 20, 21, 22, 23, 24, 25, 26, 27, 28, 29, 30, 31, 32, 33, 34, 35, 36, 37, 38, 39, 40, 41, 42, 43, 44, 45, 46, 47, 48, 49, 50, 51, 52, 53, 54, 55, 56, 57, 58, 59, 60, 61, 62, 63, 64, 65, 66, 67, 68, 69, 70, 71, 72, 73, 74, 75, 76, 77, 78, 79, 80, 81, 82, 83, 84, 85, 86, 87, 88, 89, 90, 91, 92, 93, 94, 95, 96, 97, 98, 99, 100, 101, 102, 103, 104, 105, 106, 107, 108, 109, 110, 111, 112, 113, 114, 115, 116, 117, 118, 119, 120, 121, 122, 123, 124, 125, 126, 127, 128, 129, 130, 131, 132, 133, 134, 135, 136, 137, 138, 139, 140, 141, 142, 143, 144, 145, 146, 147, 148, 149, 150, 151, 152, 153, 154, 155, 156, 157, 158, 159, 160, 161, 162, 163, 164, 165, 166, 167, 168, 169, 170, 171, 172, 173, 174, 175, 176, 177, 178, 179, 180, 181, 182, 183, 184, 185, 186, 187, 188, 189, 190, 191, 192, 193, 194, 195, 196, 197, 198, 199, 200, 201, 202, 203, 204, 205, 206, 207, 208, 209, 210, 211, 212, 213, 214, 215, 216, 217, 218, 219, 220, 221, 222, 223, 224, 225, 226, 227, 228, 229, 230, 231, 232, 233, 234, 235, 236, 237, 238, 239, 240, 241, 242, 243, 244, 245, 246, 247, 248, 249, 250, 251, 252, 253, 254, 255, 256, 257, 258, 259, 260, 261, 262, 263, 264, 265, 266, 267, 268, 269, 270, 271, 272, 273, 274, 275, 276, 277, 278, 279, 280, 281, 282, 283, 284, 285, 286, 287, 288, 289, 290, 291, 292, 293, 294, 295, 296, 297, 298, 299, 300, 301, 302, 303, 304, 305, 306, 307, 308, 309, 310, 311, 312, 313, 314, 315, 316, 317, 318, 319, 320, 321, 322, 323, 324, 325, 326, 327, 328, 329, 330, 331, 332, 333, 334, 335, 336, 337, 338, 339, 340, 341, 342, 343, 344, 345, 346, 347, 348, 349, 350, 351, 352, 353, 354, 355, 356, 357, 358, 359, 360, 361, 362, 363, 364, 365, 366, 367, 368, 369, 370, 371, 372, 373],
      "AcquisitionTime": ["121103.370000", "121104.650000", "121105.930000", "121107.210000", "121108.490000", "121109.770000", "121111.050000", "121112.330000", "121113.610000", "121114.890000", "121116.170000", "121117.450000", "121118.730000", "121120.010000", "121121.290000", "121122.570000", "121123.850000", "121125.130000", "121126.410000", "121127.690000", "121128.970000", "121130.250000", "121131.530000", "121132.810000", "121134.090000", "121135.370000", "121136.650000", "121137.930000", "121139.210000", "121140.490000", "121141.770000", "121143.050000", "121144.330000", "121145.610000", "121146.890000", "121148.170000", "121149.450000", "121150.730000", "121152.010000", "121153.290000", "121154.570000", "121155.850000", "121157.130000", "121158.410000", "121159.690000", "121200.970000", "121202.250000", "121203.530000", "121204.810000", "121206.090000", "121207.370000", "121208.650000", "121209.930000", "121211.210000", "121212.490000", "121213.770000", "121215.050000", "121216.330000", "121217.610000", "121218.890000", "121220.170000", "121221.450000", "121222.730000", "121224.010000", "121225.290000", "121226.570000", "121227.850000", "121229.130000", "121230.410000", "121231.690000", "121232.970000", "121234.250000", "121235.530000", "121236.810000", "121238.090000", "121239.370000", "121240.650000", "121241.930000", "121243.210000", "121244.490000", "121245.770000", "121247.050000", "121248.330000", "121249.610000", "121250.890000", "121252.170000", "121253.450000", "121254.730000", "121256.010000", "121257.290000", "121258.570000", "121259.850000", "121301.130000", "121302.410000", "121303.690000", "121304.970000", "121306.250000", "121307.530000", "121308.810000", "121310.090000", "121311.370000", "121312.650000", "121313.930000", "121315.210000", "121316.490000", "121317.770000", "121319.050000", "121320.330000", "121321.610000", "121322.890000", "121324.170000", "121325.450000", "121326.730000", "121328.010000", "121329.290000", "121330.570000", "121331.850000", "121333.130000", "121334.410000", "121335.690000", "121336.970000", "121338.250000", "121339.530000", "121340.810000", "121342.090000", "121343.370000", "121344.650000", "121345.930000", "121347.210000", "121348.490000", "121349.770000", "121351.050000", "121352.330000", "121353.610000", "121354.890000", "121356.170000", "121357.450000", "121358.730000", "121400.010000", "121401.290000", "121402.570000", "121403.850000", "121405.130000", "121406.410000", "121407.690000", "121408.970000", "121410.250000", "121411.530000", "121412.810000", "121414.090000", "121415.370000", "121416.650000", "121417.930000", "121419.210000", "121420.490000", "121421.770000", "121423.050000", "121424.330000", "121425.610000", "121426.890000", "121428.170000", "121429.450000", "121430.730000", "121432.010000", "121433.290000", "121434.570000", "121435.850000", "121437.130000", "121438.410000", "121439.690000", "121440.970000", "121442.250000", "121443.530000", "121444.810000", "121446.090000", "121447.370000", "121448.650000", "121449.930000", "121451.210000", "121452.490000", "121453.770000", "121455.050000", "121456.330000", "121457.610000", "121458.890000", "121500.170000", "121501.450000", "121502.730000", "121504.010000", "121505.290000", "121506.570000", "121507.850000", "121509.130000", "121510.410000", "121511.690000", "121512.970000", "121514.250000", "121515.530000", "121516.810000", "121518.090000", "121519.370000", "121520.650000", "121521.930000", "121523.210000", "121524.490000", "121525.770000", "121527.050000", "121528.330000", "121529.610000", "121530.890000", "121532.170000", "121533.450000", "121534.730000", "121536.010000", "121537.290000", "121538.570000", "121539.850000", "121541.130000", "121542.410000", "121543.690000", "121544.970000", "121546.250000", "121547.530000", "121548.810000", "121550.090000", "121551.370000", "121552.650000", "121553.930000", "121555.210000", "121556.490000", "121557.770000", "121559.050000", "121600.330000", "121601.610000", "121602.890000", "121604.170000", "121605.450000", "121606.730000", "121608.010000", "121609.290000", "121610.570000", "121611.850000", "121613.130000", "121614.410000", "121615.690000", "121616.970000", "121618.250000", "121619.530000", "121620.810000", "121622.090000", "121623.370000", "121624.650000", "121625.930000", "121627.210000", "121628.490000", "121629.770000", "121631.050000", "121632.330000", "121633.610000", "121634.890000", "121636.170000", "121637.450000", "121638.730000", "121640.010000", "121641.290000", "121642.570000", "121643.850000", "121645.130000", "121646.410000", "121647.690000", "121648.970000", "121650.250000", "121651.530000", "121652.810000", "121654.090000", "121655.370000", "121656.650000", "121657.930000", "121659.210000", "121700.490000", "121701.770000", "121703.050000", "121704.330000", "121705.610000", "121706.890000", "121708.170000", "121709.450000", "121710.730000", "121712.010000", "121713.290000", "121714.570000", "121715.850000", "121717.130000", "121718.410000", "121719.690000", "121720.970000", "121722.250000", "121723.530000", "121724.810000", "121726.090000", "121727.370000", "121728.650000", "121729.930000", "121731.210000", "121732.490000", "121733.770000", "121735.050000", "121736.330000", "121737.610000", "121738.890000", "121740.170000", "121741.450000", "121742.730000", "121744.010000", "121745.290000", "121746.570000", "121747.850000", "121749.130000", "121750.410000", "121751.690000", "121752.970000", "121754.250000", "121755.530000", "121756.810000", "121758.090000", "121759.370000", "121800.650000", "121801.930000", "121803.210000", "121804.490000", "121805.770000", "121807.050000", "121808.330000", "121809.610000", "121810.890000", "121812.170000", "121813.450000", "121814.730000", "121816.010000", "121817.290000", "121818.570000", "121819.850000", "121821.130000", "121822.410000", "121823.690000", "121824.970000", "121826.250000", "121827.530000", "121828.810000", "121830.090000", "121831.370000", "121832.650000", "121833.930000", "121835.210000", "121836.490000", "121837.770000", "121839.050000", "121840.330000", "121841.610000", "121842.890000", "121844.170000", "121845.450000", "121846.730000", "121848.010000", "121849.290000", "121850.570000", "121851.850000", "121853.130000", "121854.410000", "121855.690000", "121856.970000", "121858.250000", "121859.530000"],
      "ContentTime": ["121141.055000", "121141.059000", "121141.068000", "121141.071000", "121141.082000", "121141.085000", "121141.088000", "121141.091000", "121141.094000", "121141.097000", "121141.100000", "121141.103000", "121141.106000", "121141.109000", "121141.112000", "121141.114000", "121141.122000", "121141.125000", "121141.128000", "121141.131000", "121141.134000", "121141.137000", "121141.140000", "121141.146000", "121141.148000", "121141.151000", "121141.154000", "121141.157000", "121141.160000", "121221.037000", "121221.040000", "121221.043000", "121221.046000", "121221.049000", "121221.052000", "121221.055000", "121221.058000", "121221.061000", "121221.064000", "121221.067000", "121221.070000", "121221.073000", "121221.076000", "121221.079000", "121221.082000", "121221.085000", "121221.088000", "121221.091000", "121221.094000", "121221.097000", "121221.100000", "121221.103000", "121221.106000", "121221.109000", "121221.112000", "121221.115000", "121221.118000", "121221.121000", "121221.142000", "121221.145000", "121301.037000", "121301.040000", "121301.043000", "121301.046000", "121301.049000", "121301.051000", "121301.062000", "121301.065000", "121301.069000", "121301.072000", "121301.075000", "121301.078000", "121301.080000", "121301.083000", "121301.086000", "121301.089000", "121301.092000", "121301.095000", "121301.098000", "121301.101000", "121301.106000", "121301.109000", "121301.112000", "121301.115000", "121301.118000", "121301.121000", "121301.124000", "121301.127000", "121301.130000", "121301.132000", "121301.135000", "121341.037000", "121341.040000", "121341.043000", "121341.046000", "121341.049000", "121341.052000", "121341.055000", "121341.057000", "121341.060000", "121341.063000", "121341.066000", "121341.069000", "121341.072000", "121341.075000", "121341.078000", "121341.081000", "121341.084000", "121341.087000", "121341.090000", "121341.092000", "121341.095000", "121341.098000", "121341.101000", "121341.104000", "121341.107000", "121341.110000", "121341.113000", "121341.116000", "121341.119000", "121341.122000", "121341.125000", "121341.127000", "121421.037000", "121421.040000", "121421.043000", "121421.046000", "121421.049000", "121421.052000", "121421.055000", "121421.058000", "121421.061000", "121421.064000", "121421.066000", "121421.069000", "121421.072000", "121421.075000", "121421.078000", "121421.081000", "121421.084000", "121421.087000", "121421.090000", "121421.092000", "121421.096000", "121421.098000", "121421.101000", "121421.104000", "121421.107000", "121421.110000", "121421.113000", "121421.116000", "121421.119000", "121421.122000", "121421.125000", "121501.037000", "121501.040000", "121501.043000", "121501.046000", "121501.049000", "121501.052000", "121501.055000", "121501.058000", "121501.061000", "121501.063000", "121501.066000", "121501.069000", "121501.072000", "121501.075000", "121501.078000", "121501.081000", "121501.084000", "121501.087000", "121501.090000", "121501.093000", "121501.096000", "121501.099000", "121501.102000", "121501.105000", "121501.107000", "121501.110000", "121501.113000", "121501.116000", "121501.119000", "121501.122000", "121501.125000", "121541.037000", "121541.040000", "121541.043000", "121541.046000", "121541.049000", "121541.052000", "121541.067000", "121541.070000", "121541.072000", "121541.075000", "121541.078000", "121541.081000", "121541.084000", "121541.087000", "121541.090000", "121541.093000", "121541.096000", "121541.101000", "121541.104000", "121541.107000", "121541.111000", "121541.113000", "121541.116000", "121541.119000", "121541.123000", "121541.125000", "121541.128000", "121541.131000", "121541.134000", "121541.137000", "121541.140000", "121621.037000", "121621.040000", "121621.043000", "121621.046000", "121621.049000", "121621.052000", "121621.054000", "121621.057000", "121621.060000", "121621.063000", "121621.066000", "121621.069000", "121621.072000", "121621.075000", "121621.078000", "121621.081000", "121621.084000", "121621.087000", "121621.090000", "121621.093000", "121621.096000", "121621.098000", "121621.101000", "121621.104000", "121621.107000", "121621.110000", "121621.113000", "121621.116000", "121621.119000", "121621.122000", "121621.125000", "121621.128000", "121701.037000", "121701.040000", "121701.043000", "121701.046000", "121701.049000", "121701.052000", "121701.055000", "121701.058000", "121701.061000", "121701.064000", "121701.067000", "121701.070000", "121701.072000", "121701.076000", "121701.078000", "121701.081000", "121701.084000", "121701.087000", "121701.090000", "121701.093000", "121701.096000", "121701.099000", "121701.102000", "121701.105000", "121701.108000", "121701.111000", "121701.114000", "121701.117000", "121701.119000", "121701.122000", "121701.125000", "121741.037000", "121741.040000", "121741.043000", "121741.046000", "121741.049000", "121741.052000", "121741.055000", "121741.058000", "121741.061000", "121741.064000", "121741.067000", "121741.069000", "121741.072000", "121741.075000", "121741.078000", "121741.081000", "121741.084000", "121741.087000", "121741.090000", "121741.093000", "121741.096000", "121741.099000", "121741.102000", "121741.105000", "121741.108000", "121741.110000", "121741.113000", "121741.116000", "121741.119000", "121741.122000", "121741.125000", "121821.037000", "121821.040000", "121821.043000", "121821.046000", "121821.049000", "121821.052000", "121821.055000", "121821.058000", "121821.060000", "121821.063000", "121821.066000", "121821.069000", "121821.072000", "121821.075000", "121821.078000", "121821.081000", "121821.084000", "121821.087000", "121821.090000", "121821.093000", "121821.096000", "121821.099000", "121821.102000", "121821.105000", "121821.108000", "121821.111000", "121821.114000", "121821.116000", "121821.119000", "121821.122000", "121821.125000", "121900.809000", "121900.812000", "121900.816000", "121900.820000", "121900.823000", "121900.826000", "121900.830000", "121900.833000", "121900.836000", "121900.840000", "121900.847000", "121900.851000", "121900.854000", "121900.857000", "121900.860000", "121900.864000", "121900.867000", "121900.871000", "121900.874000", "121900.878000", "121900.881000", "121900.884000", "121900.889000", "121900.893000", "121900.897000", "121900.900000", "121900.910000", "121900.913000", "121900.916000", "121900.919000", "121900.923000", "121900.927000"],
      "InstanceCreationTime": ["121141.055000", "121141.059000", "121141.068000", "121141.071000", "121141.082000", "121141.085000", "121141.088000", "121141.091000", "121141.094000", "121141.097000", "121141.100000", "121141.103000", "121141.106000", "121141.109000", "121141.112000", "121141.114000", "121141.122000", "121141.125000", "121141.128000", "121141.131000", "121141.134000", "121141.137000", "121141.140000", "121141.146000", "121141.148000", "121141.151000", "121141.154000", "121141.157000", "121141.160000", "121221.037000", "121221.040000", "121221.043000", "121221.046000", "121221.049000", "121221.052000", "121221.055000", "121221.058000", "121221.061000", "121221.064000", "121221.067000", "121221.070000", "121221.073000", "121221.076000", "121221.079000", "121221.082000", "121221.085000", "121221.088000", "121221.091000", "121221.094000", "121221.097000", "121221.100000", "121221.103000", "121221.106000", "121221.109000", "121221.112000", "121221.115000", "121221.118000", "121221.121000", "121221.142000", "121221.145000", "121301.037000", "121301.040000", "121301.043000", "121301.046000", "121301.049000", "121301.051000", "121301.062000", "121301.065000", "121301.069000", "121301.072000", "121301.075000", "121301.078000", "121301.080000", "121301.083000", "121301.086000", "121301.089000", "121301.092000", "121301.095000", "121301.098000", "121301.101000", "121301.106000", "121301.109000", "121301.112000", "121301.115000", "121301.118000", "121301.121000", "121301.124000", "121301.127000", "121301.130000", "121301.132000", "121301.135000", "121341.037000", "121341.040000", "121341.043000", "121341.046000", "121341.049000", "121341.052000", "121341.055000", "121341.057000", "121341.060000", "121341.063000", "121341.066000", "121341.069000", "121341.072000", "121341.075000", "121341.078000", "121341.081000", "121341.084000", "121341.087000", "121341.090000", "121341.092000", "121341.095000", "121341.098000", "121341.101000", "121341.104000", "121341.107000", "121341.110000", "121341.113000", "121341.116000", "121341.119000", "121341.122000", "121341.125000", "121341.127000", "121421.037000", "121421.040000", "121421.043000", "121421.046000", "121421.049000", "121421.052000", "121421.055000", "121421.058000", "121421.061000", "121421.064000", "121421.066000", "121421.069000", "121421.072000", "121421.075000", "121421.078000", "121421.081000", "121421.084000", "121421.087000", "121421.090000", "121421.092000", "121421.096000", "121421.098000", "121421.101000", "121421.104000", "121421.107000", "121421.110000", "121421.113000", "121421.116000", "121421.119000", "121421.122000", "121421.125000", "121501.037000", "121501.040000", "121501.043000", "121501.046000", "121501.049000", "121501.052000", "121501.055000", "121501.058000", "121501.061000", "121501.063000", "121501.066000", "121501.069000", "121501.072000", "121501.075000", "121501.078000", "121501.081000", "121501.084000", "121501.087000", "121501.090000", "121501.093000", "121501.096000", "121501.099000", "121501.102000", "121501.105000", "121501.107000", "121501.110000", "121501.113000", "121501.116000", "121501.119000", "121501.122000", "121501.125000", "121541.037000", "121541.040000", "121541.043000", "121541.046000", "121541.049000", "121541.052000", "121541.067000", "121541.070000", "121541.072000", "121541.075000", "121541.078000", "121541.081000", "121541.084000", "121541.087000", "121541.090000", "121541.093000", "121541.096000", "121541.101000", "121541.104000", "121541.107000", "121541.111000", "121541.113000", "121541.116000", "121541.119000", "121541.123000", "121541.125000", "121541.128000", "121541.131000", "121541.134000", "121541.137000", "121541.140000", "121621.037000", "121621.040000", "121621.043000", "121621.046000", "121621.049000", "121621.052000", "121621.054000", "121621.057000", "121621.060000", "121621.063000", "121621.066000", "121621.069000", "121621.072000", "121621.075000", "121621.078000", "121621.081000", "121621.084000", "121621.087000", "121621.090000", "121621.093000", "121621.096000", "121621.098000", "121621.101000", "121621.104000", "121621.107000", "121621.110000", "121621.113000", "121621.116000", "121621.119000", "121621.122000", "121621.125000", "121621.128000", "121701.037000", "121701.040000", "121701.043000", "121701.046000", "121701.049000", "121701.052000", "121701.055000", "121701.058000", "121701.061000", "121701.064000", "121701.067000", "121701.070000", "121701.072000", "121701.076000", "121701.078000", "121701.081000", "121701.084000", "121701.087000", "121701.090000", "121701.093000", "121701.096000", "121701.099000", "121701.102000", "121701.105000", "121701.108000", "121701.111000", "121701.114000", "121701.117000", "121701.119000", "121701.122000", "121701.125000", "121741.037000", "121741.040000", "121741.043000", "121741.046000", "121741.049000", "121741.052000", "121741.055000", "121741.058000", "121741.061000", "121741.064000", "121741.067000", "121741.069000", "121741.072000", "121741.075000", "121741.078000", "121741.081000", "121741.084000", "121741.087000", "121741.090000", "121741.093000", "121741.096000", "121741.099000", "121741.102000", "121741.105000", "121741.108000", "121741.110000", "121741.113000", "121741.116000", "121741.119000", "121741.122000", "121741.125000", "121821.037000", "121821.040000", "121821.043000", "121821.046000", "121821.049000", "121821.052000", "121821.055000", "121821.058000", "121821.060000", "121821.063000", "121821.066000", "121821.069000", "121821.072000", "121821.075000", "121821.078000", "121821.081000", "121821.084000", "121821.087000", "121821.090000", "121821.093000", "121821.096000", "121821.099000", "121821.102000", "121821.105000", "121821.108000", "121821.111000", "121821.114000", "121821.116000", "121821.119000", "121821.122000", "121821.125000", "121900.809000", "121900.812000", "121900.816000", "121900.820000", "121900.823000", "121900.826000", "121900.830000", "121900.833000", "121900.836000", "121900.840000", "121900.847000", "121900.851000", "121900.854000", "121900.857000", "121900.860000", "121900.864000", "121900.867000", "121900.871000", "121900.874000", "121900.878000", "121900.881000", "121900.884000", "121900.889000", "121900.893000", "121900.897000", "121900.900000", "121900.910000", "121900.913000", "121900.916000", "121900.919000", "121900.923000", "121900.927000"],
      "InstanceNumber": [1, 2, 3, 4, 5, 6, 7, 8, 9, 10, 11, 12, 13, 14, 15, 16, 17, 18, 19, 20, 21, 22, 23, 24, 25, 26, 27, 28, 29, 30, 31, 32, 33, 34, 35, 36, 37, 38, 39, 40, 41, 42, 43, 44, 45, 46, 47, 48, 49, 50, 51, 52, 53, 54, 55, 56, 57, 58, 59, 60, 61, 62, 63, 64, 65, 66, 67, 68, 69, 70, 71, 72, 73, 74, 75, 76, 77, 78, 79, 80, 81, 82, 83, 84, 85, 86, 87, 88, 89, 90, 91, 92, 93, 94, 95, 96, 97, 98, 99, 100, 101, 102, 103, 104, 105, 106, 107, 108, 109, 110, 111, 112, 113, 114, 115, 116, 117, 118, 119, 120, 121, 122, 123, 124, 125, 126, 127, 128, 129, 130, 131, 132, 133, 134, 135, 136, 137, 138, 139, 140, 141, 142, 143, 144, 145, 146, 147, 148, 149, 150, 151, 152, 153, 154, 155, 156, 157, 158, 159, 160, 161, 162, 163, 164, 165, 166, 167, 168, 169, 170, 171, 172, 173, 174, 175, 176, 177, 178, 179, 180, 181, 182, 183, 184, 185, 186, 187, 188, 189, 190, 191, 192, 193, 194, 195, 196, 197, 198, 199, 200, 201, 202, 203, 204, 205, 206, 207, 208, 209, 210, 211, 212, 213, 214, 215, 216, 217, 218, 219, 220, 221, 222, 223, 224, 225, 226, 227, 228, 229, 230, 231, 232, 233, 234, 235, 236, 237, 238, 239, 240, 241, 242, 243, 244, 245, 246, 247, 248, 249, 250, 251, 252, 253, 254, 255, 256, 257, 258, 259, 260, 261, 262, 263, 264, 265, 266, 267, 268, 269, 270, 271, 272, 273, 274, 275, 276, 277, 278, 279, 280, 281, 282, 283, 284, 285, 286, 287, 288, 289, 290, 291, 292, 293, 294, 295, 296, 297, 298, 299, 300, 301, 302, 303, 304, 305, 306, 307, 308, 309, 310, 311, 312, 313, 314, 315, 316, 317, 318, 319, 320, 321, 322, 323, 324, 325, 326, 327, 328, 329, 330, 331, 332, 333, 334, 335, 336, 337, 338, 339, 340, 341, 342, 343, 344, 345, 346, 347, 348, 349, 350, 351, 352, 353, 354, 355, 356, 357, 358, 359, 360, 361, 362, 363, 364, 365, 366, 367, 368, 369, 370, 371, 372, 373],
