{
  "AcquisitionMatrixPE": 108,
  "AcquisitionNumber": 1,
  "AcquisitionTime": "12:04:10.235000",
  "BandwidthPerPixelPhaseEncode": 15.964,
  "BaseResolution": 108,
  "BodyPartExamined": "BRAIN",
  "ConsistencyInfo": "N4_VE11C_LATEST_20160120",
  "ConversionSoftware": "dcm2niix",
  "ConversionSoftwareVersion": "v1.0.20180622 GCC6.3.0",
  "DerivedVendorReportedEchoSpacing": 0.000580009,
  "DeviceSerialNumber": "66054",
  "DwellTime": 2.1e-06,
  "EchoTime": 0.031,
  "EchoTrainLength": 95,
  "EffectiveEchoSpacing": 0.000580009,
  "FlipAngle": 64,
  "ImageOrientationPatientDICOM": [0.989506, -0.142727, -0.0225135, 0.117991, 0.888094, -0.44426],
  "ImageType": [
    "ORIGINAL",
    "PRIMARY",
    "M",
    "ND",
    "MOSAIC"
],
  "InPlanePhaseEncodingDirectionDICOM": "COL",
  "InstitutionAddress": "Chemin_des_Mines_9_Geneve_District_CH_1211",
  "InstitutionName": "Fondation_Campus_Biotech_Geneva",
  "InstitutionalDepartmentName": "Department",
  "MRAcquisitionType": "2D",
  "MagneticFieldStrength": 3,
  "Manufacturer": "Siemens",
  "ManufacturersModelName": "Prisma",
  "Modality": "MR",
  "MultibandAccelerationFactor": 4,
  "PartialFourier": 0.875,
  "PatientPosition": "HFS",
  "PercentPhaseFOV": 100,
  "PhaseEncodingDirection": "j-",
  "PhaseEncodingSteps": 95,
  "PhaseResolution": 1,
  "PixelBandwidth": 2205,
  "ProcedureStepDescription": "J.DRM_Michael",
  "ProtocolName": "Rest_bold_s4_TR1.28",
  "PulseSequenceDetails": "%SiemensSeq%_ep2d_bold",
  "ReceiveCoilActiveElements": "HC1-7;NC1,2",
  "ReceiveCoilName": "HeadNeck_64",
  "ReconMatrixPE": 108,
  "RepetitionTime": 1.28,
  "SAR": 0.0750192,
  "ScanOptions": "PFP_FS",
  "ScanningSequence": "EP",
  "SequenceName": "_epfid2d1_108",
  "SequenceVariant": "SK",
  "SeriesDescription": "Rest_bold_s4_TR1.28",
  "SeriesNumber": 10,
  "ShimSetting": [-1259, -11646, 6460, 745, 111, 2, -55, 48],
  "SliceThickness": 2,
  "SliceTiming": [0.945, 0, 0.63, 0.08, 0.71, 0.1575, 0.7875, 0.2375, 0.8675, 0.395, 1.025, 0.4725, 1.1025, 0.5525, 1.1825, 0.315, 0.945, 0, 0.63, 0.08, 0.71, 0.1575, 0.7875, 0.2375, 0.8675, 0.395, 1.025, 0.4725, 1.1025, 0.5525, 1.1825, 0.315, 0.945, 0, 0.63, 0.08, 0.71, 0.1575, 0.7875, 0.2375, 0.8675, 0.395, 1.025, 0.4725, 1.1025, 0.5525, 1.1825, 0.315, 0.945, 0, 0.63, 0.08, 0.71, 0.1575, 0.7875, 0.2375, 0.8675, 0.395, 1.025, 0.4725, 1.1025, 0.5525, 1.1825, 0.315],
  "SoftwareVersions": "syngo_MR_E11",
  "SpacingBetweenSlices": 2,
  "StationName": "AWP66054",
  "TaskName": "rest",
  "TotalReadoutTime": 0.0620609,
  "TxRefAmp": 254.456,
  "dcmmeta_affine": [
    [-1.969849944114685, 0.23489046096801758, -0.16680392622947693, 94.48980712890625],
    [0.28413262963294983, 1.767965316772461, -0.873882532119751, -72.71466827392578],
    [-0.0448184460401535, 0.8844059705734253, 1.7912302017211914, -88.05420684814453],
    [0.0, 0.0, 0.0, 1.0]
],
  "dcmmeta_reorient_transform": [
    [0.0, -1.0, 0.0, 107.0],
    [1.0, 0.0, 0.0, 0.0],
    [0.0, 0.0, 1.0, 0.0],
    [0.0, 0.0, 0.0, 1.0]
],
  "dcmmeta_shape": [108, 108, 64, 250],
  "dcmmeta_slice_dim": 2,
  "dcmmeta_version": 0.6,
  "global": {
    "const": {
      "AccessionNumber": "",
      "AcquisitionMatrix": [108, 0, 0, 108],
      "AngioFlag": "N",
      "BitsAllocated": 16,
      "BitsStored": 12,
      "BodyPartExamined": "BRAIN",
      "Columns": 864,
      "EchoNumbers": 1,
      "EchoTime": 31.0,
      "EchoTrainLength": 95,
      "FlipAngle": 64.0,
      "HighBit": 11,
      "ImageOrientationPatient": [0.98950599906398, -0.1427270902647, -0.0225134520004, 0.11799148349392, 0.88809419821577, -0.4442597268698],
      "ImagePositionPatient": [-953.01495915909, -677.34638217032, 357.82404983744],
      "ImageType": [
        "ORIGINAL",
        "PRIMARY",
        "M",
        "ND",
        "MOSAIC"
],
      "ImagedNucleus": "1H",
      "ImagingFrequency": 123.257442,
      "InPlanePhaseEncodingDirection": "COL",
      "MRAcquisitionType": "2D",
      "MagneticFieldStrength": 3.0,
      "Manufacturer": "SIEMENS",
      "ManufacturerModelName": "Prisma",
      "Modality": "MR",
      "NumberOfAverages": 1.0,
      "NumberOfPhaseEncodingSteps": 95,
      "PercentPhaseFieldOfView": 100.0,
      "PercentSampling": 100.0,
      "PerformedProcedureStepStartTime": "105649.622000",
      "PhotometricInterpretation": "MONOCHROME2",
      "PixelBandwidth": 2205.0,
      "PixelRepresentation": 0,
      "PixelSpacing": [1.990740776062, 1.990740776062],
      "PositionReferenceIndicator": "",
      "ProtocolName": "Rest_bold_s4_TR1.28",
      "RepetitionTime": 1280.0,
      "Rows": 864,
      "SAR": 0.07501922072403,
      "SamplesPerPixel": 1,
      "ScanOptions": [
        "PFP",
        "FS"
],
      "ScanningSequence": "EP",
      "SequenceName": "*epfid2d1_108",
      "SequenceVariant": "SK",
      "SeriesDescription": "Rest_bold_s4_TR1.28",
      "SeriesNumber": 10,
      "SeriesTime": "120440.967000",
      "SliceLocation": -54.971278900424,
      "SliceThickness": 2.0,
      "SmallestImagePixelValue": 0,
      "SoftwareVersions": "syngo MR E11",
      "SpacingBetweenSlices": 1.9999999918076,
      "SpecificCharacterSet": "ISO_IR 100",
      "StudyID": "1",
      "StudyTime": "105649.554000",
      "TransmitCoilName": "Body",
      "VariableFlipAngleFlag": "N",
      "WindowCenterWidthExplanation": "Algo1",
      "dBdt": 0.0},
    "slices": {}
  },
  "time": {
    "samples": {
      "AcquisitionNumber": [1, 2, 3, 4, 5, 6, 7, 8, 9, 10, 11, 12, 13, 14, 15, 16, 17, 18, 19, 20, 21, 22, 23, 24, 25, 26, 27, 28, 29, 30, 31, 32, 33, 34, 35, 36, 37, 38, 39, 40, 41, 42, 43, 44, 45, 46, 47, 48, 49, 50, 51, 52, 53, 54, 55, 56, 57, 58, 59, 60, 61, 62, 63, 64, 65, 66, 67, 68, 69, 70, 71, 72, 73, 74, 75, 76, 77, 78, 79, 80, 81, 82, 83, 84, 85, 86, 87, 88, 89, 90, 91, 92, 93, 94, 95, 96, 97, 98, 99, 100, 101, 102, 103, 104, 105, 106, 107, 108, 109, 110, 111, 112, 113, 114, 115, 116, 117, 118, 119, 120, 121, 122, 123, 124, 125, 126, 127, 128, 129, 130, 131, 132, 133, 134, 135, 136, 137, 138, 139, 140, 141, 142, 143, 144, 145, 146, 147, 148, 149, 150, 151, 152, 153, 154, 155, 156, 157, 158, 159, 160, 161, 162, 163, 164, 165, 166, 167, 168, 169, 170, 171, 172, 173, 174, 175, 176, 177, 178, 179, 180, 181, 182, 183, 184, 185, 186, 187, 188, 189, 190, 191, 192, 193, 194, 195, 196, 197, 198, 199, 200, 201, 202, 203, 204, 205, 206, 207, 208, 209, 210, 211, 212, 213, 214, 215, 216, 217, 218, 219, 220, 221, 222, 223, 224, 225, 226, 227, 228, 229, 230, 231, 232, 233, 234, 235, 236, 237, 238, 239, 240, 241, 242, 243, 244, 245, 246, 247, 248, 249, 250],
      "AcquisitionTime": ["120410.235000", "120411.515000", "120412.795000", "120414.075000", "120415.355000", "120416.635000", "120417.915000", "120419.195000", "120420.475000", "120421.755000", "120423.035000", "120424.315000", "120425.595000", "120426.875000", "120428.155000", "120429.435000", "120430.715000", "120431.995000", "120433.275000", "120434.555000", "120435.835000", "120437.115000", "120438.395000", "120439.675000", "120440.955000", "120442.235000", "120443.515000", "120444.795000", "120446.075000", "120447.355000", "120448.635000", "120449.915000", "120451.195000", "120452.475000", "120453.755000", "120455.035000", "120456.315000", "120457.595000", "120458.875000", "120500.155000", "120501.435000", "120502.715000", "120503.995000", "120505.275000", "120506.555000", "120507.835000", "120509.115000", "120510.395000", "120511.675000", "120512.955000", "120514.235000", "120515.515000", "120516.795000", "120518.075000", "120519.355000", "120520.635000", "120521.915000", "120523.195000", "120524.475000", "120525.755000", "120527.035000", "120528.315000", "120529.595000", "120530.875000", "120532.155000", "120533.435000", "120534.715000", "120535.995000", "120537.275000", "120538.555000", "120539.835000", "120541.115000", "120542.395000", "120543.675000", "120544.955000", "120546.235000", "120547.515000", "120548.795000", "120550.075000", "120551.355000", "120552.635000", "120553.915000", "120555.195000", "120556.475000", "120557.755000", "120559.035000", "120600.315000", "120601.595000", "120602.875000", "120604.155000", "120605.435000", "120606.715000", "120607.995000", "120609.275000", "120610.555000", "120611.835000", "120613.115000", "120614.395000", "120615.675000", "120616.955000", "120618.235000", "120619.515000", "120620.795000", "120622.075000", "120623.355000", "120624.635000", "120625.915000", "120627.195000", "120628.475000", "120629.755000", "120631.035000", "120632.315000", "120633.595000", "120634.875000", "120636.155000", "120637.435000", "120638.715000", "120639.995000", "120641.275000", "120642.555000", "120643.835000", "120645.115000", "120646.395000", "120647.675000", "120648.955000", "120650.235000", "120651.515000", "120652.795000", "120654.075000", "120655.355000", "120656.635000", "120657.915000", "120659.195000", "120700.475000", "120701.755000", "120703.035000", "120704.315000", "120705.595000", "120706.875000", "120708.155000", "120709.435000", "120710.715000", "120711.995000", "120713.275000", "120714.555000", "120715.835000", "120717.115000", "120718.395000", "120719.675000", "120720.955000", "120722.235000", "120723.515000", "120724.795000", "120726.075000", "120727.355000", "120728.635000", "120729.915000", "120731.195000", "120732.475000", "120733.755000", "120735.035000", "120736.315000", "120737.595000", "120738.875000", "120740.155000", "120741.435000", "120742.715000", "120743.995000", "120745.275000", "120746.555000", "120747.835000", "120749.115000", "120750.395000", "120751.675000", "120752.955000", "120754.235000", "120755.515000", "120756.795000", "120758.075000", "120759.355000", "120800.635000", "120801.915000", "120803.195000", "120804.475000", "120805.755000", "120807.035000", "120808.315000", "120809.595000", "120810.875000", "120812.155000", "120813.435000", "120814.715000", "120815.995000", "120817.275000", "120818.555000", "120819.835000", "120821.115000", "120822.395000", "120823.675000", "120824.955000", "120826.235000", "120827.515000", "120828.795000", "120830.075000", "120831.355000", "120832.635000", "120833.915000", "120835.195000", "120836.475000", "120837.755000", "120839.035000", "120840.315000", "120841.595000", "120842.875000", "120844.155000", "120845.435000", "120846.715000", "120847.995000", "120849.275000", "120850.555000", "120851.835000", "120853.115000", "120854.395000", "120855.675000", "120856.955000", "120858.235000", "120859.515000", "120900.795000", "120902.075000", "120903.355000", "120904.635000", "120905.915000", "120907.195000", "120908.475000", "120909.755000", "120911.035000", "120912.315000", "120913.595000", "120914.875000", "120916.155000", "120917.435000", "120918.715000", "120919.995000", "120921.275000", "120922.555000", "120923.835000", "120925.115000", "120926.395000", "120927.675000", "120928.955000"],
      "ContentTime": ["120440.971000", "120440.975000", "120440.978000", "120440.987000", "120440.990000", "120440.997000", "120441.001000", "120441.004000", "120441.007000", "120441.010000", "120441.013000", "120441.016000", "120441.019000", "120441.022000", "120441.025000", "120441.028000", "120441.031000", "120441.034000", "120441.037000", "120441.040000", "120441.043000", "120441.046000", "120441.049000", "120441.052000", "120520.966000", "120520.969000", "120520.972000", "120520.975000", "120520.978000", "120520.981000", "120520.984000", "120520.987000", "120520.990000", "120520.993000", "120520.996000", "120521.000000", "120521.003000", "120521.006000", "120521.009000", "120521.012000", "120521.015000", "120521.023000", "120521.026000", "120521.029000", "120521.032000", "120521.035000", "120521.037000", "120521.040000", "120521.043000", "120521.046000", "120521.049000", "120521.052000", "120521.055000", "120521.058000", "120521.061000", "120600.966000", "120600.969000", "120600.972000", "120600.975000", "120600.978000", "120600.981000", "120600.984000", "120600.986000", "120600.989000", "120600.992000", "120600.995000", "120600.998000", "120601.002000", "120601.005000", "120601.008000", "120601.011000", "120601.014000", "120601.017000", "120601.020000", "120601.023000", "120601.025000", "120601.028000", "120601.031000", "120601.034000", "120601.037000", "120601.040000", "120601.043000", "120601.046000", "120601.049000", "120601.052000", "120601.055000", "120640.966000", "120640.969000", "120640.972000", "120640.975000", "120640.978000", "120640.981000", "120640.984000", "120640.987000", "120640.990000", "120640.993000", "120640.995000", "120640.998000", "120641.002000", "120641.005000", "120641.008000", "120641.011000", "120641.014000", "120641.017000", "120641.020000", "120641.023000", "120641.027000", "120641.037000", "120641.040000", "120641.043000", "120641.046000", "120641.049000", "120641.052000", "120641.055000", "120641.058000", "120641.061000", "120641.064000", "120720.966000", "120720.969000", "120720.972000", "120720.975000", "120720.978000", "120720.981000", "120720.984000", "120720.987000", "120720.989000", "120720.992000", "120721.010000", "120721.013000", "120721.016000", "120721.019000", "120721.022000", "120721.025000", "120721.028000", "120721.031000", "120721.034000", "120721.037000", "120721.039000", "120721.042000", "120721.045000", "120721.048000", "120721.051000", "120721.054000", "120721.057000", "120721.060000", "120721.063000", "120721.066000", "120721.069000", "120721.072000", "120800.966000", "120800.969000", "120800.972000", "120800.975000", "120800.978000", "120800.981000", "120800.984000", "120800.987000", "120800.990000", "120800.993000", "120800.996000", "120801.000000", "120801.003000", "120801.006000", "120801.008000", "120801.011000", "120801.014000", "120801.017000", "120801.020000", "120801.023000", "120801.026000", "120801.029000", "120801.032000", "120801.035000", "120801.038000", "120801.041000", "120801.043000", "120801.046000", "120801.049000", "120801.052000", "120801.055000", "120840.966000", "120840.969000", "120840.972000", "120840.975000", "120840.978000", "120840.981000", "120840.984000", "120840.987000", "120840.990000", "120840.993000", "120840.996000", "120841.000000", "120841.003000", "120841.006000", "120841.008000", "120841.012000", "120841.014000", "120841.017000", "120841.020000", "120841.023000", "120841.026000", "120841.029000", "120841.032000", "120841.035000", "120841.038000", "120841.041000", "120841.044000", "120841.047000", "120841.050000", "120841.052000", "120841.055000", "120920.966000", "120920.969000", "120920.972000", "120920.975000", "120920.978000", "120920.981000", "120920.984000", "120920.987000", "120920.990000", "120920.993000", "120920.996000", "120921.000000", "120921.003000", "120921.006000", "120921.009000", "120921.012000", "120921.014000", "120921.017000", "120921.020000", "120921.023000", "120921.027000", "120921.030000", "120921.036000", "120921.039000", "120921.042000", "120921.045000", "120921.048000", "120921.051000", "120921.054000", "120921.057000", "120921.060000", "120929.990000", "120929.993000", "120929.997000", "120930.001000", "120930.004000", "120930.007000", "120930.011000", "120930.022000"],
      "InstanceCreationTime": ["120440.971000", "120440.975000", "120440.978000", "120440.987000", "120440.990000", "120440.997000", "120441.001000", "120441.004000", "120441.007000", "120441.010000", "120441.013000", "120441.016000", "120441.019000", "120441.022000", "120441.025000", "120441.028000", "120441.031000", "120441.034000", "120441.037000", "120441.040000", "120441.043000", "120441.046000", "120441.049000", "120441.052000", "120520.966000", "120520.969000", "120520.972000", "120520.975000", "120520.978000", "120520.981000", "120520.984000", "120520.987000", "120520.990000", "120520.993000", "120520.996000", "120521.000000", "120521.003000", "120521.006000", "120521.009000", "120521.012000", "120521.015000", "120521.023000", "120521.026000", "120521.029000", "120521.032000", "120521.035000", "120521.037000", "120521.040000", "120521.043000", "120521.046000", "120521.049000", "120521.052000", "120521.055000", "120521.058000", "120521.061000", "120600.966000", "120600.969000", "120600.972000", "120600.975000", "120600.978000", "120600.981000", "120600.984000", "120600.986000", "120600.989000", "120600.992000", "120600.995000", "120600.998000", "120601.002000", "120601.005000", "120601.008000", "120601.011000", "120601.014000", "120601.017000", "120601.020000", "120601.023000", "120601.025000", "120601.028000", "120601.031000", "120601.034000", "120601.037000", "120601.040000", "120601.043000", "120601.046000", "120601.049000", "120601.052000", "120601.055000", "120640.966000", "120640.969000", "120640.972000", "120640.975000", "120640.978000", "120640.981000", "120640.984000", "120640.987000", "120640.990000", "120640.993000", "120640.995000", "120640.998000", "120641.002000", "120641.005000", "120641.008000", "120641.011000", "120641.014000", "120641.017000", "120641.020000", "120641.023000", "120641.027000", "120641.037000", "120641.040000", "120641.043000", "120641.046000", "120641.049000", "120641.052000", "120641.055000", "120641.058000", "120641.061000", "120641.064000", "120720.966000", "120720.969000", "120720.972000", "120720.975000", "120720.978000", "120720.981000", "120720.984000", "120720.987000", "120720.989000", "120720.992000", "120721.010000", "120721.013000", "120721.016000", "120721.019000", "120721.022000", "120721.025000", "120721.028000", "120721.031000", "120721.034000", "120721.037000", "120721.039000", "120721.042000", "120721.045000", "120721.048000", "120721.051000", "120721.054000", "120721.057000", "120721.060000", "120721.063000", "120721.066000", "120721.069000", "120721.072000", "120800.966000", "120800.969000", "120800.972000", "120800.975000", "120800.978000", "120800.981000", "120800.984000", "120800.987000", "120800.990000", "120800.993000", "120800.996000", "120801.000000", "120801.003000", "120801.006000", "120801.008000", "120801.011000", "120801.014000", "120801.017000", "120801.020000", "120801.023000", "120801.026000", "120801.029000", "120801.032000", "120801.035000", "120801.038000", "120801.041000", "120801.043000", "120801.046000", "120801.049000", "120801.052000", "120801.055000", "120840.966000", "120840.969000", "120840.972000", "120840.975000", "120840.978000", "120840.981000", "120840.984000", "120840.987000", "120840.990000", "120840.993000", "120840.996000", "120841.000000", "120841.003000", "120841.006000", "120841.008000", "120841.012000", "120841.014000", "120841.017000", "120841.020000", "120841.023000", "120841.026000", "120841.029000", "120841.032000", "120841.035000", "120841.038000", "120841.041000", "120841.044000", "120841.047000", "120841.050000", "120841.052000", "120841.055000", "120920.966000", "120920.969000", "120920.972000", "120920.975000", "120920.978000", "120920.981000", "120920.984000", "120920.987000", "120920.990000", "120920.993000", "120920.996000", "120921.000000", "120921.003000", "120921.006000", "120921.009000", "120921.012000", "120921.014000", "120921.017000", "120921.020000", "120921.023000", "120921.027000", "120921.030000", "120921.036000", "120921.039000", "120921.042000", "120921.045000", "120921.048000", "120921.051000", "120921.054000", "120921.057000", "120921.060000", "120929.990000", "120929.993000", "120929.997000", "120930.001000", "120930.004000", "120930.007000", "120930.011000", "120930.022000"],
      "InstanceNumber": [1, 2, 3, 4, 5, 6, 7, 8, 9, 10, 11, 12, 13, 14, 15, 16, 17, 18, 19, 20, 21, 22, 23, 24, 25, 26, 27, 28, 29, 30, 31, 32, 33, 34, 35, 36, 37, 38, 39, 40, 41, 42, 43, 44, 45, 46, 47, 48, 49, 50, 51, 52, 53, 54, 55, 56, 57, 58, 59, 60, 61, 62, 63, 64, 65, 66, 67, 68, 69, 70, 71, 72, 73, 74, 75, 76, 77, 78, 79, 80, 81, 82, 83, 84, 85, 86, 87, 88, 89, 90, 91, 92, 93, 94, 95, 96, 97, 98, 99, 100, 101, 102, 103, 104, 105, 106, 107, 108, 109, 110, 111, 112, 113, 114, 115, 116, 117, 118, 119, 120, 121, 122, 123, 124, 125, 126, 127, 128, 129, 130, 131, 132, 133, 134, 135, 136, 137, 138, 139, 140, 141, 142, 143, 144, 145, 146, 147, 148, 149, 150, 151, 152, 153, 154, 155, 156, 157, 158, 159, 160, 161, 162, 163, 164, 165, 166, 167, 168, 169, 170, 171, 172, 173, 174, 175, 176, 177, 178, 179, 180, 181, 182, 183, 184, 185, 186, 187, 188, 189, 190, 191, 192, 193, 194, 195, 196, 197, 198, 199, 200, 201, 202, 203, 204, 205, 206, 207, 208, 209, 210, 211, 212, 213, 214, 215, 216, 217, 218, 219, 220, 221, 222, 223, 224, 225, 226, 227, 228, 229, 230, 231, 232, 233, 234, 235, 236, 237, 238, 239, 240, 241, 242, 243, 244, 245, 246, 247, 248, 249, 250],
      "LargestImagePixelValue": [1879, 1900, 1882, 1900, 1887, 1874, 1873, 1898, 1894, 1863, 1889, 1884, 1928, 1893, 1875, 1869, 1892, 1882, 1927, 1928, 1882, 1874, 1911, 1914, 1880, 1869, 1882, 1930, 1908, 1918, 1919, 1892, 1971, 1957, 2139, 1936, 1927, 1895, 1892, 1912, 1888, 1902, 1928, 1895, 1908, 2157, 1968, 1943, 1921, 1899, 2210, 1887, 1866, 1856, 1854, 1868, 1871, 1856, 1897, 1880, 1849, 2392, 1868, 1847, 1859, 1871, 1883, 1854, 1919, 2184, 2220, 2112, 1915, 1883, 1892, 1867, 1866, 1891, 1874, 1918, 1918, 1902, 2238, 2048, 1906, 1864, 1871, 1853, 1872, 1868, 1896, 1888, 2238, 2356, 2047, 1880, 1889, 1908, 1873, 1864, 1930, 1934, 1915, 1953, 1884, 1845, 1862, 1856, 1861, 1847, 1865, 1867, 1854, 1882, 1959, 1890, 1884, 1878, 1857, 1851, 1839, 1866, 2360, 1868, 1894, 1905, 2000, 1987, 2031, 1843, 1910, 2169, 2073, 2232, 2112, 1897, 1859, 1818, 1852, 1879, 1898, 1879, 1924, 1904, 1876, 1904, 1880, 2193, 1843, 1828, 1839, 2137, 1851, 1878, 1881, 1843, 1858, 1878, 1886, 1840, 1876, 1887, 1905, 1907, 1884, 2391, 2224, 1839, 1861, 1858, 1878, 1869, 1850, 2008, 1861, 1851, 2070, 2240, 1860, 1837, 2125, 2090, 1901, 1821, 1866, 1867, 1863, 1856, 1878, 1886, 1866, 1985, 1863, 1883, 1892, 1869, 1868, 1906, 1889, 2540, 2328, 1898, 2046, 1908, 1908, 1861, 2118, 1858, 1869, 1834, 1804, 1832, 1874, 1856, 1831, 1843, 1804, 1830, 1848, 1832, 1846, 1864, 1885, 1853, 1874, 1892, 1892, 1875, 1907, 1862, 1858, 1898, 1906, 1873, 1881, 1856, 1834, 1820, 1778, 1979, 2312, 1984, 1796, 1813, 1837, 1837, 1829, 1817, 1836, 1866],
      "WindowCenter": [613.0, 611.0, 609.0, 610.0, 610.0, 611.0, 611.0, 611.0, 610.0, 609.0, 609.0, 610.0, 611.0, 611.0, 610.0, 609.0, 610.0, 610.0, 611.0, 612.0, 612.0, 612.0, 611.0, 611.0, 610.0, 611.0, 611.0, 612.0, 612.0, 611.0, 611.0, 610.0, 611.0, 612.0, 613.0, 610.0, 609.0, 609.0, 610.0, 611.0, 610.0, 611.0, 611.0, 611.0, 611.0, 614.0, 612.0, 612.0, 611.0, 611.0, 615.0, 611.0, 611.0, 611.0, 610.0, 611.0, 611.0, 610.0, 611.0, 610.0, 610.0, 614.0, 608.0, 607.0, 607.0, 608.0, 608.0, 608.0, 609.0, 612.0, 612.0, 611.0, 610.0, 610.0, 611.0, 611.0, 611.0, 612.0, 612.0, 612.0, 612.0, 611.0, 613.0, 611.0, 608.0, 608.0, 609.0, 608.0, 609.0, 609.0, 610.0, 610.0, 614.0, 615.0, 613.0, 611.0, 611.0, 612.0, 612.0, 612.0, 613.0, 613.0, 611.0, 610.0, 609.0, 609.0, 610.0, 609.0, 608.0, 608.0, 608.0, 609.0, 608.0, 609.0, 610.0, 609.0, 608.0, 608.0, 608.0, 608.0, 609.0, 610.0, 615.0, 610.0, 610.0, 609.0, 610.0, 610.0, 610.0, 607.0, 607.0, 609.0, 608.0, 610.0, 610.0, 608.0, 607.0, 607.0, 608.0, 609.0, 610.0, 610.0, 611.0, 612.0, 612.0, 613.0, 612.0, 614.0, 610.0, 609.0, 610.0, 613.0, 610.0, 611.0, 611.0, 610.0, 611.0, 612.0, 611.0, 611.0, 613.0, 613.0, 613.0, 610.0, 607.0, 611.0, 607.0, 603.0, 604.0, 604.0, 605.0, 605.0, 606.0, 608.0, 607.0, 607.0, 609.0, 612.0, 608.0, 608.0, 611.0, 611.0, 609.0, 608.0, 609.0, 610.0, 610.0, 610.0, 610.0, 611.0, 612.0, 615.0, 614.0, 613.0, 611.0, 610.0, 610.0, 611.0, 611.0, 617.0, 615.0, 612.0, 613.0, 611.0, 610.0, 610.0, 611.0, 609.0, 608.0, 608.0, 608.0, 609.0, 609.0, 609.0, 608.0, 608.0, 608.0, 609.0, 609.0, 609.0, 609.0, 610.0, 611.0, 611.0, 611.0, 611.0, 611.0, 610.0, 611.0, 610.0, 611.0, 612.0, 613.0, 611.0, 610.0, 609.0, 608.0, 608.0, 606.0, 608.0, 610.0, 606.0, 603.0, 604.0, 605.0, 605.0, 606.0, 606.0, 607.0, 608.0],
      "WindowWidth": [1291.0, 1286.0, 1283.0, 1284.0, 1285.0, 1286.0, 1286.0, 1286.0, 1285.0, 1283.0, 1283.0, 1285.0, 1287.0, 1286.0, 1284.0, 1283.0, 1285.0, 1285.0, 1286.0, 1289.0, 1289.0, 1289.0, 1288.0, 1286.0, 1285.0, 1286.0, 1287.0, 1290.0, 1288.0, 1287.0, 1286.0, 1285.0, 1287.0, 1289.0, 1291.0, 1285.0, 1283.0, 1283.0, 1285.0, 1286.0, 1286.0, 1286.0, 1287.0, 1286.0, 1286.0, 1292.0, 1289.0, 1289.0, 1287.0, 1287.0, 1294.0, 1288.0, 1286.0, 1286.0, 1286.0, 1287.0, 1286.0, 1285.0, 1286.0, 1286.0, 1284.0, 1292.0, 1280.0, 1278.0, 1279.0, 1281.0, 1281.0, 1281.0, 1283.0, 1287.0, 1288.0, 1286.0, 1284.0, 1285.0, 1286.0, 1286.0, 1287.0, 1289.0, 1289.0, 1289.0, 1290.0, 1288.0, 1291.0, 1286.0, 1281.0, 1280.0, 1282.0, 1281.0, 1283.0, 1283.0, 1285.0, 1285.0, 1292.0, 1295.0, 1290.0, 1287.0, 1287.0, 1289.0, 1289.0, 1290.0, 1292.0, 1292.0, 1288.0, 1286.0, 1283.0, 1282.0, 1284.0, 1283.0, 1281.0, 1281.0, 1282.0, 1282.0, 1281.0, 1283.0, 1285.0, 1284.0, 1281.0, 1280.0, 1280.0, 1281.0, 1283.0, 1284.0, 1294.0, 1284.0, 1284.0, 1282.0, 1283.0, 1284.0, 1284.0, 1277.0, 1277.0, 1280.0, 1279.0, 1283.0, 1283.0, 1279.0, 1279.0, 1279.0, 1281.0, 1283.0, 1285.0, 1286.0, 1288.0, 1289.0, 1289.0, 1291.0, 1289.0, 1293.0, 1285.0, 1284.0, 1284.0, 1291.0, 1285.0, 1287.0, 1287.0, 1286.0, 1287.0, 1288.0, 1287.0, 1289.0, 1292.0, 1293.0, 1291.0, 1285.0, 1278.0, 1283.0, 1277.0, 1269.0, 1271.0, 1272.0, 1273.0, 1275.0, 1276.0, 1280.0, 1278.0, 1278.0, 1283.0, 1287.0, 1281.0, 1280.0, 1285.0, 1286.0, 1283.0, 1282.0, 1283.0, 1284.0, 1285.0, 1285.0, 1286.0, 1286.0, 1289.0, 1297.0, 1294.0, 1291.0, 1288.0, 1285.0, 1285.0, 1286.0, 1286.0, 1297.0, 1295.0, 1289.0, 1290.0, 1287.0, 1286.0, 1284.0, 1287.0, 1282.0, 1282.0, 1281.0, 1280.0, 1282.0, 1282.0, 1282.0, 1281.0, 1281.0, 1280.0, 1282.0, 1283.0, 1283.0, 1284.0, 1285.0, 1287.0, 1287.0, 1287.0, 1288.0, 1287.0, 1285.0, 1286.0, 1286.0, 1287.0, 1290.0, 1293.0, 1289.0, 1286.0, 1283.0, 1279.0, 1280.0, 1278.0, 1279.0, 1282.0, 1275.0, 1271.0, 1273.0, 1274.0, 1275.0, 1276.0, 1277.0, 1279.0, 1280.0]
    },
    "slices": {}
  }
}