{
  "AcquisitionMatrixPE": 108,
  "AcquisitionNumber": 1,
  "AcquisitionTime": "11:21:13.922500",
  "BandwidthPerPixelPhaseEncode": 15.964,
  "BaseResolution": 108,
  "BodyPartExamined": "BRAIN",
  "ConsistencyInfo": "N4_VE11C_LATEST_20160120",
  "ConversionSoftware": "dcm2niix",
  "ConversionSoftwareVersion": "v1.0.20180622 GCC6.3.0",
  "DerivedVendorReportedEchoSpacing": 0.000580009,
  "DeviceSerialNumber": "66054",
  "DwellTime": 2.1e-06,
  "EchoTime": 0.031,
  "EchoTrainLength": 95,
  "EffectiveEchoSpacing": 0.000580009,
  "FlipAngle": 64,
  "ImageOrientationPatientDICOM": [0.989506, -0.142727, -0.0225135, 0.117991, 0.888094, -0.44426],
  "ImageType": [
    "ORIGINAL",
    "PRIMARY",
    "M",
    "ND",
    "MOSAIC"
],
  "InPlanePhaseEncodingDirectionDICOM": "COL",
  "InstitutionAddress": "Chemin_des_Mines_9_Geneve_District_CH_1211",
  "InstitutionName": "Fondation_Campus_Biotech_Geneva",
  "InstitutionalDepartmentName": "Department",
  "MRAcquisitionType": "2D",
  "MagneticFieldStrength": 3,
  "Manufacturer": "Siemens",
  "ManufacturersModelName": "Prisma",
  "Modality": "MR",
  "MultibandAccelerationFactor": 4,
  "PartialFourier": 0.875,
  "PatientPosition": "HFS",
  "PercentPhaseFOV": 100,
  "PhaseEncodingDirection": "j-",
  "PhaseEncodingSteps": 95,
  "PhaseResolution": 1,
  "PixelBandwidth": 2205,
  "ProcedureStepDescription": "J.DRM_Michael",
  "ProtocolName": "Run1_bold_s4_TR1.28",
  "PulseSequenceDetails": "%SiemensSeq%_ep2d_bold",
  "ReceiveCoilActiveElements": "HC1-7;NC1,2",
  "ReceiveCoilName": "HeadNeck_64",
  "ReconMatrixPE": 108,
  "RepetitionTime": 1.28,
  "SAR": 0.0752291,
  "ScanOptions": "PFP_FS",
  "ScanningSequence": "EP",
  "SequenceName": "_epfid2d1_108",
  "SequenceVariant": "SK",
  "SeriesDescription": "Run1_bold_s4_TR1.28",
  "SeriesNumber": 5,
  "ShimSetting": [-1259, -11646, 6460, 745, 111, 2, -55, 48],
  "SliceThickness": 2,
  "SliceTiming": [0.945, 0, 0.63, 0.08, 0.71, 0.1575, 0.7875, 0.2375, 0.8675, 0.395, 1.025, 0.4725, 1.1025, 0.5525, 1.1825, 0.315, 0.945, 0, 0.63, 0.08, 0.71, 0.1575, 0.7875, 0.2375, 0.8675, 0.395, 1.025, 0.4725, 1.1025, 0.5525, 1.1825, 0.315, 0.945, 0, 0.63, 0.08, 0.71, 0.1575, 0.7875, 0.2375, 0.8675, 0.395, 1.025, 0.4725, 1.1025, 0.5525, 1.1825, 0.315, 0.945, 0, 0.63, 0.08, 0.71, 0.1575, 0.7875, 0.2375, 0.8675, 0.395, 1.025, 0.4725, 1.1025, 0.5525, 1.1825, 0.315],
  "SoftwareVersions": "syngo_MR_E11",
  "SpacingBetweenSlices": 2,
  "StationName": "AWP66054",
  "TaskName": "main",
  "TotalReadoutTime": 0.0620609,
  "TxRefAmp": 254.456,
  "dcmmeta_affine": [
    [-1.969849944114685, 0.23489046096801758, -0.16680392622947693, 94.48980712890625],
    [0.28413262963294983, 1.767965316772461, -0.873882532119751, -72.71466827392578],
    [-0.0448184460401535, 0.8844059705734253, 1.7912302017211914, -88.05420684814453],
    [0.0, 0.0, 0.0, 1.0]
],
  "dcmmeta_reorient_transform": [
    [0.0, -1.0, 0.0, 107.0],
    [1.0, 0.0, 0.0, 0.0],
    [0.0, 0.0, 1.0, 0.0],
    [0.0, 0.0, 0.0, 1.0]
],
  "dcmmeta_shape": [108, 108, 64, 373],
  "dcmmeta_slice_dim": 2,
  "dcmmeta_version": 0.6,
  "global": {
    "const": {
      "AccessionNumber": "",
      "AcquisitionMatrix": [108, 0, 0, 108],
      "AngioFlag": "N",
      "BitsAllocated": 16,
      "BitsStored": 12,
      "BodyPartExamined": "BRAIN",
      "Columns": 864,
      "EchoNumbers": 1,
      "EchoTime": 31.0,
      "EchoTrainLength": 95,
      "FlipAngle": 64.0,
      "HighBit": 11,
      "ImageOrientationPatient": [0.98950599906398, -0.1427270902647, -0.0225134520004, 0.11799148349392, 0.88809419821577, -0.4442597268698],
      "ImagePositionPatient": [-953.01495915909, -677.34638217032, 357.82404983744],
      "ImageType": [
        "ORIGINAL",
        "PRIMARY",
        "M",
        "ND",
        "MOSAIC"
],
      "ImagedNucleus": "1H",
      "ImagingFrequency": 123.257413,
      "InPlanePhaseEncodingDirection": "COL",
      "MRAcquisitionType": "2D",
      "MagneticFieldStrength": 3.0,
      "Manufacturer": "SIEMENS",
      "ManufacturerModelName": "Prisma",
      "Modality": "MR",
      "NumberOfAverages": 1.0,
      "NumberOfPhaseEncodingSteps": 95,
      "PercentPhaseFieldOfView": 100.0,
      "PercentSampling": 100.0,
      "PerformedProcedureStepStartTime": "105649.622000",
      "PhotometricInterpretation": "MONOCHROME2",
      "PixelBandwidth": 2205.0,
      "PixelRepresentation": 0,
      "PixelSpacing": [1.990740776062, 1.990740776062],
      "PositionReferenceIndicator": "",
      "ProtocolName": "Run1_bold_s4_TR1.28",
      "RepetitionTime": 1280.0,
      "Rows": 864,
      "SAR": 0.07522911551108,
      "SamplesPerPixel": 1,
      "ScanOptions": [
        "PFP",
        "FS"
],
      "ScanningSequence": "EP",
      "SequenceName": "*epfid2d1_108",
      "SequenceVariant": "SK",
      "SeriesDescription": "Run1_bold_s4_TR1.28",
      "SeriesNumber": 5,
      "SeriesTime": "112141.038000",
      "SliceLocation": -54.971278900424,
      "SliceThickness": 2.0,
      "SmallestImagePixelValue": 0,
      "SoftwareVersions": "syngo MR E11",
      "SpacingBetweenSlices": 1.9999999918076,
      "SpecificCharacterSet": "ISO_IR 100",
      "StudyID": "1",
      "StudyTime": "105649.554000",
      "TransmitCoilName": "Body",
      "VariableFlipAngleFlag": "N",
      "WindowCenterWidthExplanation": "Algo1",
      "dBdt": 0.0},
    "slices": {}
  },
  "time": {
    "samples": {
      "AcquisitionNumber": [1, 2, 3, 4, 5, 6, 7, 8, 9, 10, 11, 12, 13, 14, 15, 16, 17, 18, 19, 20, 21, 22, 23, 24, 25, 26, 27, 28, 29, 30, 31, 32, 33, 34, 35, 36, 37, 38, 39, 40, 41, 42, 43, 44, 45, 46, 47, 48, 49, 50, 51, 52, 53, 54, 55, 56, 57, 58, 59, 60, 61, 62, 63, 64, 65, 66, 67, 68, 69, 70, 71, 72, 73, 74, 75, 76, 77, 78, 79, 80, 81, 82, 83, 84, 85, 86, 87, 88, 89, 90, 91, 92, 93, 94, 95, 96, 97, 98, 99, 100, 101, 102, 103, 104, 105, 106, 107, 108, 109, 110, 111, 112, 113, 114, 115, 116, 117, 118, 119, 120, 121, 122, 123, 124, 125, 126, 127, 128, 129, 130, 131, 132, 133, 134, 135, 136, 137, 138, 139, 140, 141, 142, 143, 144, 145, 146, 147, 148, 149, 150, 151, 152, 153, 154, 155, 156, 157, 158, 159, 160, 161, 162, 163, 164, 165, 166, 167, 168, 169, 170, 171, 172, 173, 174, 175, 176, 177, 178, 179, 180, 181, 182, 183, 184, 185, 186, 187, 188, 189, 190, 191, 192, 193, 194, 195, 196, 197, 198, 199, 200, 201, 202, 203, 204, 205, 206, 207, 208, 209, 210, 211, 212, 213, 214, 215, 216, 217, 218, 219, 220, 221, 222, 223, 224, 225, 226, 227, 228, 229, 230, 231, 232, 233, 234, 235, 236, 237, 238, 239, 240, 241, 242, 243, 244, 245, 246, 247, 248, 249, 250, 251, 252, 253, 254, 255, 256, 257, 258, 259, 260, 261, 262, 263, 264, 265, 266, 267, 268, 269, 270, 271, 272, 273, 274, 275, 276, 277, 278, 279, 280, 281, 282, 283, 284, 285, 286, 287, 288, 289, 290, 291, 292, 293, 294, 295, 296, 297, 298, 299, 300, 301, 302, 303, 304, 305, 306, 307, 308, 309, 310, 311, 312, 313, 314, 315, 316, 317, 318, 319, 320, 321, 322, 323, 324, 325, 326, 327, 328, 329, 330, 331, 332, 333, 334, 335, 336, 337, 338, 339, 340, 341, 342, 343, 344, 345, 346, 347, 348, 349, 350, 351, 352, 353, 354, 355, 356, 357, 358, 359, 360, 361, 362, 363, 364, 365, 366, 367, 368, 369, 370, 371, 372, 373],
      "AcquisitionTime": ["112113.922500", "112115.202500", "112116.482500", "112117.762500", "112119.042500", "112120.322500", "112121.602500", "112122.882500", "112124.162500", "112125.442500", "112126.722500", "112128.002500", "112129.282500", "112130.562500", "112131.842500", "112133.122500", "112134.402500", "112135.682500", "112136.962500", "112138.242500", "112139.522500", "112140.802500", "112142.082500", "112143.362500", "112144.642500", "112145.922500", "112147.202500", "112148.482500", "112149.762500", "112151.042500", "112152.322500", "112153.602500", "112154.882500", "112156.162500", "112157.442500", "112158.722500", "112200.002500", "112201.282500", "112202.562500", "112203.842500", "112205.122500", "112206.402500", "112207.682500", "112208.962500", "112210.242500", "112211.522500", "112212.802500", "112214.082500", "112215.362500", "112216.642500", "112217.922500", "112219.202500", "112220.482500", "112221.762500", "112223.042500", "112224.322500", "112225.602500", "112226.882500", "112228.162500", "112229.442500", "112230.722500", "112232.002500", "112233.282500", "112234.562500", "112235.842500", "112237.122500", "112238.402500", "112239.682500", "112240.962500", "112242.242500", "112243.522500", "112244.802500", "112246.082500", "112247.362500", "112248.642500", "112249.922500", "112251.202500", "112252.482500", "112253.762500", "112255.042500", "112256.322500", "112257.602500", "112258.882500", "112300.162500", "112301.442500", "112302.722500", "112304.002500", "112305.282500", "112306.562500", "112307.842500", "112309.122500", "112310.402500", "112311.682500", "112312.962500", "112314.242500", "112315.522500", "112316.802500", "112318.082500", "112319.362500", "112320.642500", "112321.922500", "112323.202500", "112324.482500", "112325.762500", "112327.042500", "112328.322500", "112329.602500", "112330.882500", "112332.162500", "112333.442500", "112334.722500", "112336.002500", "112337.282500", "112338.562500", "112339.842500", "112341.122500", "112342.402500", "112343.682500", "112344.962500", "112346.242500", "112347.522500", "112348.802500", "112350.082500", "112351.362500", "112352.642500", "112353.922500", "112355.202500", "112356.482500", "112357.762500", "112359.042500", "112400.322500", "112401.602500", "112402.882500", "112404.162500", "112405.442500", "112406.722500", "112408.002500", "112409.282500", "112410.562500", "112411.842500", "112413.122500", "112414.402500", "112415.682500", "112416.962500", "112418.242500", "112419.522500", "112420.802500", "112422.082500", "112423.362500", "112424.642500", "112425.922500", "112427.202500", "112428.482500", "112429.762500", "112431.042500", "112432.322500", "112433.602500", "112434.882500", "112436.162500", "112437.442500", "112438.722500", "112440.002500", "112441.282500", "112442.562500", "112443.842500", "112445.122500", "112446.402500", "112447.682500", "112448.962500", "112450.242500", "112451.522500", "112452.802500", "112454.082500", "112455.362500", "112456.642500", "112457.922500", "112459.202500", "112500.482500", "112501.762500", "112503.042500", "112504.322500", "112505.602500", "112506.882500", "112508.162500", "112509.442500", "112510.722500", "112512.002500", "112513.282500", "112514.562500", "112515.842500", "112517.122500", "112518.402500", "112519.682500", "112520.962500", "112522.242500", "112523.522500", "112524.802500", "112526.082500", "112527.362500", "112528.642500", "112529.922500", "112531.202500", "112532.482500", "112533.762500", "112535.042500", "112536.322500", "112537.602500", "112538.882500", "112540.162500", "112541.442500", "112542.722500", "112544.002500", "112545.282500", "112546.562500", "112547.842500", "112549.122500", "112550.402500", "112551.682500", "112552.962500", "112554.242500", "112555.522500", "112556.802500", "112558.082500", "112559.362500", "112600.642500", "112601.922500", "112603.202500", "112604.482500", "112605.762500", "112607.042500", "112608.322500", "112609.602500", "112610.882500", "112612.162500", "112613.442500", "112614.722500", "112616.002500", "112617.282500", "112618.562500", "112619.842500", "112621.122500", "112622.402500", "112623.682500", "112624.962500", "112626.242500", "112627.522500", "112628.802500", "112630.082500", "112631.362500", "112632.642500", "112633.922500", "112635.202500", "112636.482500", "112637.762500", "112639.042500", "112640.322500", "112641.602500", "112642.882500", "112644.162500", "112645.442500", "112646.722500", "112648.002500", "112649.282500", "112650.562500", "112651.842500", "112653.122500", "112654.402500", "112655.682500", "112656.962500", "112658.242500", "112659.522500", "112700.802500", "112702.082500", "112703.362500", "112704.642500", "112705.922500", "112707.202500", "112708.482500", "112709.762500", "112711.042500", "112712.322500", "112713.602500", "112714.882500", "112716.162500", "112717.442500", "112718.722500", "112720.002500", "112721.282500", "112722.562500", "112723.842500", "112725.122500", "112726.402500", "112727.682500", "112728.962500", "112730.242500", "112731.522500", "112732.802500", "112734.082500", "112735.362500", "112736.642500", "112737.922500", "112739.202500", "112740.482500", "112741.762500", "112743.042500", "112744.322500", "112745.602500", "112746.882500", "112748.162500", "112749.442500", "112750.722500", "112752.002500", "112753.282500", "112754.562500", "112755.842500", "112757.122500", "112758.402500", "112759.682500", "112800.962500", "112802.242500", "112803.522500", "112804.802500", "112806.082500", "112807.362500", "112808.642500", "112809.922500", "112811.202500", "112812.482500", "112813.762500", "112815.042500", "112816.322500", "112817.602500", "112818.882500", "112820.162500", "112821.442500", "112822.722500", "112824.002500", "112825.282500", "112826.562500", "112827.842500", "112829.122500", "112830.402500", "112831.682500", "112832.962500", "112834.242500", "112835.522500", "112836.802500", "112838.082500", "112839.362500", "112840.642500", "112841.922500", "112843.202500", "112844.482500", "112845.762500", "112847.042500", "112848.322500", "112849.602500", "112850.882500", "112852.162500", "112853.442500", "112854.722500", "112856.002500", "112857.282500", "112858.562500", "112859.842500", "112901.122500", "112902.402500", "112903.682500", "112904.962500", "112906.242500", "112907.522500", "112908.802500", "112910.082500"],
      "ContentTime": ["112141.042000", "112141.045000", "112141.052000", "112141.054000", "112141.057000", "112141.060000", "112141.063000", "112141.066000", "112141.069000", "112141.072000", "112141.075000", "112141.078000", "112141.081000", "112141.084000", "112141.086000", "112141.089000", "112141.092000", "112141.095000", "112141.098000", "112141.101000", "112141.104000", "112221.037000", "112221.040000", "112221.043000", "112221.046000", "112221.049000", "112221.052000", "112221.055000", "112221.066000", "112221.069000", "112221.072000", "112221.074000", "112221.077000", "112221.080000", "112221.083000", "112221.091000", "112221.094000", "112221.097000", "112221.100000", "112221.103000", "112221.106000", "112221.108000", "112221.111000", "112221.114000", "112221.117000", "112221.120000", "112221.123000", "112221.126000", "112221.129000", "112221.132000", "112221.135000", "112221.137000", "112301.037000", "112301.040000", "112301.043000", "112301.046000", "112301.048000", "112301.051000", "112301.054000", "112301.057000", "112301.060000", "112301.063000", "112301.066000", "112301.069000", "112301.072000", "112301.074000", "112301.077000", "112301.080000", "112301.083000", "112301.086000", "112301.089000", "112301.092000", "112301.095000", "112301.098000", "112301.100000", "112301.103000", "112301.106000", "112301.109000", "112301.112000", "112301.115000", "112301.118000", "112301.120000", "112301.123000", "112341.037000", "112341.040000", "112341.043000", "112341.046000", "112341.049000", "112341.052000", "112341.055000", "112341.058000", "112341.061000", "112341.064000", "112341.066000", "112341.070000", "112341.072000", "112341.075000", "112341.078000", "112341.081000", "112341.084000", "112341.087000", "112341.090000", "112341.093000", "112341.096000", "112341.099000", "112341.102000", "112341.105000", "112341.108000", "112341.111000", "112341.113000", "112341.116000", "112341.122000", "112341.125000", "112341.127000", "112341.130000", "112421.037000", "112421.040000", "112421.043000", "112421.046000", "112421.049000", "112421.052000", "112421.055000", "112421.058000", "112421.061000", "112421.064000", "112421.068000", "112421.071000", "112421.074000", "112421.077000", "112421.080000", "112421.083000", "112421.085000", "112421.088000", "112421.091000", "112421.094000", "112421.097000", "112421.100000", "112421.103000", "112421.106000", "112421.109000", "112421.112000", "112421.115000", "112421.118000", "112421.121000", "112421.124000", "112421.127000", "112501.037000", "112501.040000", "112501.043000", "112501.046000", "112501.049000", "112501.052000", "112501.055000", "112501.058000", "112501.060000", "112501.063000", "112501.066000", "112501.069000", "112501.072000", "112501.075000", "112501.078000", "112501.081000", "112501.100000", "112501.103000", "112501.106000", "112501.108000", "112501.111000", "112501.114000", "112501.117000", "112501.120000", "112501.123000", "112501.126000", "112501.129000", "112501.132000", "112501.135000", "112501.138000", "112501.141000", "112541.037000", "112541.040000", "112541.043000", "112541.046000", "112541.049000", "112541.052000", "112541.055000", "112541.058000", "112541.061000", "112541.064000", "112541.067000", "112541.070000", "112541.073000", "112541.076000", "112541.078000", "112541.082000", "112541.084000", "112541.087000", "112541.090000", "112541.093000", "112541.096000", "112541.099000", "112541.102000", "112541.105000", "112541.108000", "112541.111000", "112541.114000", "112541.117000", "112541.120000", "112541.122000", "112541.125000", "112621.037000", "112621.040000", "112621.043000", "112621.046000", "112621.049000", "112621.052000", "112621.055000", "112621.058000", "112621.061000", "112621.064000", "112621.067000", "112621.070000", "112621.073000", "112621.076000", "112621.079000", "112621.081000", "112621.085000", "112621.088000", "112621.090000", "112621.093000", "112621.096000", "112621.099000", "112621.102000", "112621.105000", "112621.108000", "112621.111000", "112621.114000", "112621.117000", "112621.120000", "112621.123000", "112621.126000", "112621.129000", "112701.037000", "112701.040000", "112701.043000", "112701.046000", "112701.049000", "112701.052000", "112701.055000", "112701.058000", "112701.061000", "112701.064000", "112701.067000", "112701.070000", "112701.074000", "112701.077000", "112701.080000", "112701.083000", "112701.086000", "112701.089000", "112701.092000", "112701.096000", "112701.100000", "112701.103000", "112701.106000", "112701.109000", "112701.112000", "112701.115000", "112701.118000", "112701.121000", "112701.124000", "112701.127000", "112701.130000", "112741.037000", "112741.040000", "112741.043000", "112741.046000", "112741.049000", "112741.052000", "112741.055000", "112741.058000", "112741.061000", "112741.064000", "112741.067000", "112741.070000", "112741.072000", "112741.076000", "112741.078000", "112741.081000", "112741.084000", "112741.087000", "112741.090000", "112741.093000", "112741.096000", "112741.099000", "112741.102000", "112741.105000", "112741.107000", "112741.111000", "112741.114000", "112741.116000", "112741.119000", "112741.122000", "112741.125000", "112821.037000", "112821.040000", "112821.043000", "112821.046000", "112821.049000", "112821.052000", "112821.055000", "112821.058000", "112821.061000", "112821.064000", "112821.067000", "112821.070000", "112821.073000", "112821.075000", "112821.078000", "112821.081000", "112821.084000", "112821.087000", "112821.090000", "112821.093000", "112821.096000", "112821.099000", "112821.102000", "112821.105000", "112821.108000", "112821.111000", "112821.114000", "112821.117000", "112821.120000", "112821.123000", "112821.126000", "112901.037000", "112901.040000", "112901.043000", "112901.064000", "112901.067000", "112901.070000", "112901.073000", "112901.076000", "112901.079000", "112901.082000", "112901.085000", "112901.087000", "112901.090000", "112901.093000", "112901.096000", "112901.099000", "112901.102000", "112901.105000", "112901.108000", "112901.111000", "112901.114000", "112901.117000", "112901.120000", "112901.123000", "112901.126000", "112901.129000", "112901.132000", "112901.135000", "112901.138000", "112901.141000", "112901.144000", "112901.147000", "112911.115000", "112911.119000", "112911.122000", "112911.124000", "112911.127000", "112911.131000", "112911.133000", "112911.137000"],
      "InstanceCreationTime": ["112141.042000", "112141.045000", "112141.052000", "112141.054000", "112141.057000", "112141.060000", "112141.063000", "112141.066000", "112141.069000", "112141.072000", "112141.075000", "112141.078000", "112141.081000", "112141.084000", "112141.086000", "112141.089000", "112141.092000", "112141.095000", "112141.098000", "112141.101000", "112141.104000", "112221.037000", "112221.040000", "112221.043000", "112221.046000", "112221.049000", "112221.052000", "112221.055000", "112221.066000", "112221.069000", "112221.072000", "112221.074000", "112221.077000", "112221.080000", "112221.083000", "112221.091000", "112221.094000", "112221.097000", "112221.100000", "112221.103000", "112221.106000", "112221.108000", "112221.111000", "112221.114000", "112221.117000", "112221.120000", "112221.123000", "112221.126000", "112221.129000", "112221.132000", "112221.135000", "112221.137000", "112301.037000", "112301.040000", "112301.043000", "112301.046000", "112301.048000", "112301.051000", "112301.054000", "112301.057000", "112301.060000", "112301.063000", "112301.066000", "112301.069000", "112301.072000", "112301.074000", "112301.077000", "112301.080000", "112301.083000", "112301.086000", "112301.089000", "112301.092000", "112301.095000", "112301.098000", "112301.100000", "112301.103000", "112301.106000", "112301.109000", "112301.112000", "112301.115000", "112301.118000", "112301.120000", "112301.123000", "112341.037000", "112341.040000", "112341.043000", "112341.046000", "112341.049000", "112341.052000", "112341.055000", "112341.058000", "112341.061000", "112341.064000", "112341.066000", "112341.070000", "112341.072000", "112341.075000", "112341.078000", "112341.081000", "112341.084000", "112341.087000", "112341.090000", "112341.093000", "112341.096000", "112341.099000", "112341.102000", "112341.105000", "112341.108000", "112341.111000", "112341.113000", "112341.116000", "112341.122000", "112341.125000", "112341.127000", "112341.130000", "112421.037000", "112421.040000", "112421.043000", "112421.046000", "112421.049000", "112421.052000", "112421.055000", "112421.058000", "112421.061000", "112421.064000", "112421.068000", "112421.071000", "112421.074000", "112421.077000", "112421.080000", "112421.083000", "112421.085000", "112421.088000", "112421.091000", "112421.094000", "112421.097000", "112421.100000", "112421.103000", "112421.106000", "112421.109000", "112421.112000", "112421.115000", "112421.118000", "112421.121000", "112421.124000", "112421.127000", "112501.037000", "112501.040000", "112501.043000", "112501.046000", "112501.049000", "112501.052000", "112501.055000", "112501.058000", "112501.060000", "112501.063000", "112501.066000", "112501.069000", "112501.072000", "112501.075000", "112501.078000", "112501.081000", "112501.100000", "112501.103000", "112501.106000", "112501.108000", "112501.111000", "112501.114000", "112501.117000", "112501.120000", "112501.123000", "112501.126000", "112501.129000", "112501.132000", "112501.135000", "112501.138000", "112501.141000", "112541.037000", "112541.040000", "112541.043000", "112541.046000", "112541.049000", "112541.052000", "112541.055000", "112541.058000", "112541.061000", "112541.064000", "112541.067000", "112541.070000", "112541.073000", "112541.076000", "112541.078000", "112541.082000", "112541.084000", "112541.087000", "112541.090000", "112541.093000", "112541.096000", "112541.099000", "112541.102000", "112541.105000", "112541.108000", "112541.111000", "112541.114000", "112541.117000", "112541.120000", "112541.122000", "112541.125000", "112621.037000", "112621.040000", "112621.043000", "112621.046000", "112621.049000", "112621.052000", "112621.055000", "112621.058000", "112621.061000", "112621.064000", "112621.067000", "112621.070000", "112621.073000", "112621.076000", "112621.079000", "112621.081000", "112621.085000", "112621.088000", "112621.090000", "112621.093000", "112621.096000", "112621.099000", "112621.102000", "112621.105000", "112621.108000", "112621.111000", "112621.114000", "112621.117000", "112621.120000", "112621.123000", "112621.126000", "112621.129000", "112701.037000", "112701.040000", "112701.043000", "112701.046000", "112701.049000", "112701.052000", "112701.055000", "112701.058000", "112701.061000", "112701.064000", "112701.067000", "112701.070000", "112701.074000", "112701.077000", "112701.080000", "112701.083000", "112701.086000", "112701.089000", "112701.092000", "112701.096000", "112701.100000", "112701.103000", "112701.106000", "112701.109000", "112701.112000", "112701.115000", "112701.118000", "112701.121000", "112701.124000", "112701.127000", "112701.130000", "112741.037000", "112741.040000", "112741.043000", "112741.046000", "112741.049000", "112741.052000", "112741.055000", "112741.058000", "112741.061000", "112741.064000", "112741.067000", "112741.070000", "112741.072000", "112741.076000", "112741.078000", "112741.081000", "112741.084000", "112741.087000", "112741.090000", "112741.093000", "112741.096000", "112741.099000", "112741.102000", "112741.105000", "112741.107000", "112741.111000", "112741.114000", "112741.116000", "112741.119000", "112741.122000", "112741.125000", "112821.037000", "112821.040000", "112821.043000", "112821.046000", "112821.049000", "112821.052000", "112821.055000", "112821.058000", "112821.061000", "112821.064000", "112821.067000", "112821.070000", "112821.073000", "112821.075000", "112821.078000", "112821.081000", "112821.084000", "112821.087000", "112821.090000", "112821.093000", "112821.096000", "112821.099000", "112821.102000", "112821.105000", "112821.108000", "112821.111000", "112821.114000", "112821.117000", "112821.120000", "112821.123000", "112821.126000", "112901.037000", "112901.040000", "112901.043000", "112901.064000", "112901.067000", "112901.070000", "112901.073000", "112901.076000", "112901.079000", "112901.082000", "112901.085000", "112901.087000", "112901.090000", "112901.093000", "112901.096000", "112901.099000", "112901.102000", "112901.105000", "112901.108000", "112901.111000", "112901.114000", "112901.117000", "112901.120000", "112901.123000", "112901.126000", "112901.129000", "112901.132000", "112901.135000", "112901.138000", "112901.141000", "112901.144000", "112901.147000", "112911.115000", "112911.119000", "112911.122000", "112911.124000", "112911.127000", "112911.131000", "112911.133000", "112911.137000"],
      "InstanceNumber": [1, 2, 3, 4, 5, 6, 7, 8, 9, 10, 11, 12, 13, 14, 15, 16, 17, 18, 19, 20, 21, 22, 23, 24, 25, 26, 27, 28, 29, 30, 31, 32, 33, 34, 35, 36, 37, 38, 39, 40, 41, 42, 43, 44, 45, 46, 47, 48, 49, 50, 51, 52, 53, 54, 55, 56, 57, 58, 59, 60, 61, 62, 63, 64, 65, 66, 67, 68, 69, 70, 71, 72, 73, 74, 75, 76, 77, 78, 79, 80, 81, 82, 83, 84, 85, 86, 87, 88, 89, 90, 91, 92, 93, 94, 95, 96, 97, 98, 99, 100, 101, 102, 103, 104, 105, 106, 107, 108, 109, 110, 111, 112, 113, 114, 115, 116, 117, 118, 119, 120, 121, 122, 123, 124, 125, 126, 127, 128, 129, 130, 131, 132, 133, 134, 135, 136, 137, 138, 139, 140, 141, 142, 143, 144, 145, 146, 147, 148, 149, 150, 151, 152, 153, 154, 155, 156, 157, 158, 159, 160, 161, 162, 163, 164, 165, 166, 167, 168, 169, 170, 171, 172, 173, 174, 175, 176, 177, 178, 179, 180, 181, 182, 183, 184, 185, 186, 187, 188, 189, 190, 191, 192, 193, 194, 195, 196, 197, 198, 199, 200, 201, 202, 203, 204, 205, 206, 207, 208, 209, 210, 211, 212, 213, 214, 215, 216, 217, 218, 219, 220, 221, 222, 223, 224, 225, 226, 227, 228, 229, 230, 231, 232, 233, 234, 235, 236, 237, 238, 239, 240, 241, 242, 243, 244, 245, 246, 247, 248, 249, 250, 251, 252, 253, 254, 255, 256, 257, 258, 259, 260, 261, 262, 263, 264, 265, 266, 267, 268, 269, 270, 271, 272, 273, 274, 275, 276, 277, 278, 279, 280, 281, 282, 283, 284, 285, 286, 287, 288, 289, 290, 291, 292, 293, 294, 295, 296, 297, 298, 299, 300, 301, 302, 303, 304, 305, 306, 307, 308, 309, 310, 311, 312, 313, 314, 315, 316, 317, 318, 319, 320, 321, 322, 323, 324, 325, 326, 327, 328, 329, 330, 331, 332, 333, 334, 335, 336, 337, 338, 339, 340, 341, 342, 343, 344, 345, 346, 347, 348, 349, 350, 351, 352, 353, 354, 355, 356, 357, 358, 359, 360, 361, 362, 363, 364, 365, 366, 367, 368, 369, 370, 371, 372, 373],
