{
  "AcquisitionMatrixPE": 108,
  "AcquisitionNumber": 1,
  "AcquisitionTime": "13:09:20.477500",
  "BandwidthPerPixelPhaseEncode": 15.964,
  "BaseResolution": 108,
  "BodyPartExamined": "BRAIN",
  "ConsistencyInfo": "N4_VE11C_LATEST_20160120",
  "ConversionSoftware": "dcm2niix",
  "ConversionSoftwareVersion": "v1.0.20180622 GCC6.3.0",
  "DerivedVendorReportedEchoSpacing": 0.000580009,
  "DeviceSerialNumber": "66054",
  "DwellTime": 2.1e-06,
  "EchoTime": 0.031,
  "EchoTrainLength": 95,
  "EffectiveEchoSpacing": 0.000580009,
  "FlipAngle": 64,
  "ImageOrientationPatientDICOM": [0.997162, -0.00161039, -0.0752646, -0.0330793, 0.88871, -0.457275],
  "ImageType": [
    "ORIGINAL",
    "PRIMARY",
    "M",
    "ND",
    "MOSAIC"
],
  "InPlanePhaseEncodingDirectionDICOM": "COL",
  "InstitutionAddress": "Chemin_des_Mines_9_Geneve_District_CH_1211",
  "InstitutionName": "Fondation_Campus_Biotech_Geneva",
  "InstitutionalDepartmentName": "Department",
  "MRAcquisitionType": "2D",
  "MagneticFieldStrength": 3,
  "Manufacturer": "Siemens",
  "ManufacturersModelName": "Prisma",
  "Modality": "MR",
  "MultibandAccelerationFactor": 4,
  "PartialFourier": 0.875,
  "PatientPosition": "HFS",
  "PercentPhaseFOV": 100,
  "PhaseEncodingDirection": "j-",
  "PhaseEncodingSteps": 95,
  "PhaseResolution": 1,
  "PixelBandwidth": 2205,
  "ProcedureStepDescription": "J.DRM_Michael",
  "ProtocolName": "Run6_bold_s4_TR1.28",
  "PulseSequenceDetails": "%SiemensSeq%_ep2d_bold",
  "ReceiveCoilActiveElements": "HC1-7;NC1,2",
  "ReceiveCoilName": "HeadNeck_64",
  "ReconMatrixPE": 108,
  "RepetitionTime": 1.28,
  "SAR": 0.0761486,
  "ScanOptions": "PFP_FS",
  "ScanningSequence": "EP",
  "SequenceName": "_epfid2d1_108",
  "SequenceVariant": "SK",
  "SeriesDescription": "Run6_bold_s4_TR1.28",
  "SeriesNumber": 19,
  "ShimSetting": [-1274, -11620, 6467, 462, 205, 128, -45, 51],
  "SliceThickness": 2,
  "SliceTiming": [0.945, 0, 0.63, 0.0775, 0.7075, 0.1575, 0.7875, 0.235, 0.865, 0.3925, 1.0225, 0.4725, 1.1025, 0.55, 1.18, 0.315, 0.945, 0, 0.63, 0.0775, 0.7075, 0.1575, 0.7875, 0.235, 0.865, 0.3925, 1.0225, 0.4725, 1.1025, 0.55, 1.18, 0.315, 0.945, 0, 0.63, 0.0775, 0.7075, 0.1575, 0.7875, 0.235, 0.865, 0.3925, 1.0225, 0.4725, 1.1025, 0.55, 1.18, 0.315, 0.945, 0, 0.63, 0.0775, 0.7075, 0.1575, 0.7875, 0.235, 0.865, 0.3925, 1.0225, 0.4725, 1.1025, 0.55, 1.18, 0.315],
  "SoftwareVersions": "syngo_MR_E11",
  "SpacingBetweenSlices": 2,
  "StationName": "AWP66054",
  "TaskName": "main",
  "TotalReadoutTime": 0.0620609,
  "TxRefAmp": 275.084,
  "dcmmeta_affine": [
    [-1.9850916862487793, -0.06585238128900528, -0.13524949550628662, 109.13760375976562],
    [0.003205870511010289, 1.769190788269043, -0.9169348478317261, -66.5162353515625],
    [-0.14983226358890533, 0.9103166460990906, 1.7722691297531128, -81.94861602783203],
    [0.0, 0.0, 0.0, 1.0]
],
  "dcmmeta_reorient_transform": [
    [0.0, -1.0, 0.0, 107.0],
    [1.0, 0.0, 0.0, 0.0],
    [0.0, 0.0, 1.0, 0.0],
    [0.0, 0.0, 0.0, 1.0]
],
  "dcmmeta_shape": [108, 108, 64, 373],
  "dcmmeta_slice_dim": 2,
  "dcmmeta_version": 0.6,
  "global": {
    "const": {
      "AccessionNumber": "",
      "AcquisitionMatrix": [108, 0, 0, 108],
      "AngioFlag": "N",
      "BitsAllocated": 16,
      "BitsStored": 12,
      "BodyPartExamined": "BRAIN",
      "Columns": 864,
      "EchoNumbers": 1,
      "EchoTime": 31.0,
      "EchoTrainLength": 95,
      "FlipAngle": 64.0,
      "HighBit": 11,
      "ImageOrientationPatient": [0.99716229898323, -0.001610390686, -0.0752645741921, -0.0330793335051, 0.88870974808169, -0.4572753452346],
      "ImagePositionPatient": [-827.56384068892, -790.32945114603, 416.19156844712],
      "ImageType": [
        "ORIGINAL",
        "PRIMARY",
        "M",
        "ND",
        "MOSAIC"
],
      "ImagedNucleus": "1H",
      "ImagingFrequency": 123.25738,
      "InPlanePhaseEncodingDirection": "COL",
      "MRAcquisitionType": "2D",
      "MagneticFieldStrength": 3.0,
      "Manufacturer": "SIEMENS",
      "ManufacturerModelName": "Prisma",
      "Modality": "MR",
      "NumberOfAverages": 1.0,
      "NumberOfPhaseEncodingSteps": 95,
      "PercentPhaseFieldOfView": 100.0,
      "PercentSampling": 100.0,
      "PerformedProcedureStepStartTime": "112113.180000",
      "PhotometricInterpretation": "MONOCHROME2",
      "PixelBandwidth": 2205.0,
      "PixelRepresentation": 0,
      "PixelSpacing": [1.990740776062, 1.990740776062],
      "PositionReferenceIndicator": "",
      "ProtocolName": "Run6_bold_s4_TR1.28",
      "RepetitionTime": 1280.0,
      "Rows": 864,
      "SAR": 0.07614862719262,
      "SamplesPerPixel": 1,
      "ScanOptions": [
        "PFP",
        "FS"
],
      "ScanningSequence": "EP",
      "SequenceName": "*epfid2d1_108",
      "SequenceVariant": "SK",
      "SeriesDescription": "Run6_bold_s4_TR1.28",
      "SeriesNumber": 19,
      "SeriesTime": "130951.742000",
      "SliceLocation": -49.502374793823,
      "SliceThickness": 2.0,
      "SmallestImagePixelValue": 0,
      "SoftwareVersions": "syngo MR E11",
      "SpacingBetweenSlices": 1.9999999538746,
      "SpecificCharacterSet": "ISO_IR 100",
      "StudyID": "1",
      "StudyTime": "112113.119000",
      "TransmitCoilName": "Body",
      "VariableFlipAngleFlag": "N",
      "WindowCenterWidthExplanation": "Algo1",
      "dBdt": 0.0},
    "slices": {}
  },
  "time": {
    "samples": {
      "AcquisitionNumber": [1, 2, 3, 4, 5, 6, 7, 8, 9, 10, 11, 12, 13, 14, 15, 16, 17, 18, 19, 20, 21, 22, 23, 24, 25, 26, 27, 28, 29, 30, 31, 32, 33, 34, 35, 36, 37, 38, 39, 40, 41, 42, 43, 44, 45, 46, 47, 48, 49, 50, 51, 52, 53, 54, 55, 56, 57, 58, 59, 60, 61, 62, 63, 64, 65, 66, 67, 68, 69, 70, 71, 72, 73, 74, 75, 76, 77, 78, 79, 80, 81, 82, 83, 84, 85, 86, 87, 88, 89, 90, 91, 92, 93, 94, 95, 96, 97, 98, 99, 100, 101, 102, 103, 104, 105, 106, 107, 108, 109, 110, 111, 112, 113, 114, 115, 116, 117, 118, 119, 120, 121, 122, 123, 124, 125, 126, 127, 128, 129, 130, 131, 132, 133, 134, 135, 136, 137, 138, 139, 140, 141, 142, 143, 144, 145, 146, 147, 148, 149, 150, 151, 152, 153, 154, 155, 156, 157, 158, 159, 160, 161, 162, 163, 164, 165, 166, 167, 168, 169, 170, 171, 172, 173, 174, 175, 176, 177, 178, 179, 180, 181, 182, 183, 184, 185, 186, 187, 188, 189, 190, 191, 192, 193, 194, 195, 196, 197, 198, 199, 200, 201, 202, 203, 204, 205, 206, 207, 208, 209, 210, 211, 212, 213, 214, 215, 216, 217, 218, 219, 220, 221, 222, 223, 224, 225, 226, 227, 228, 229, 230, 231, 232, 233, 234, 235, 236, 237, 238, 239, 240, 241, 242, 243, 244, 245, 246, 247, 248, 249, 250, 251, 252, 253, 254, 255, 256, 257, 258, 259, 260, 261, 262, 263, 264, 265, 266, 267, 268, 269, 270, 271, 272, 273, 274, 275, 276, 277, 278, 279, 280, 281, 282, 283, 284, 285, 286, 287, 288, 289, 290, 291, 292, 293, 294, 295, 296, 297, 298, 299, 300, 301, 302, 303, 304, 305, 306, 307, 308, 309, 310, 311, 312, 313, 314, 315, 316, 317, 318, 319, 320, 321, 322, 323, 324, 325, 326, 327, 328, 329, 330, 331, 332, 333, 334, 335, 336, 337, 338, 339, 340, 341, 342, 343, 344, 345, 346, 347, 348, 349, 350, 351, 352, 353, 354, 355, 356, 357, 358, 359, 360, 361, 362, 363, 364, 365, 366, 367, 368, 369, 370, 371, 372, 373],
      "AcquisitionTime": ["130920.477500", "130921.757500", "130923.037500", "130924.317500", "130925.597500", "130926.877500", "130928.157500", "130929.437500", "130930.717500", "130931.997500", "130933.277500", "130934.557500", "130935.837500", "130937.117500", "130938.397500", "130939.677500", "130940.957500", "130942.237500", "130943.517500", "130944.797500", "130946.077500", "130947.357500", "130948.637500", "130949.917500", "130951.197500", "130952.477500", "130953.757500", "130955.037500", "130956.317500", "130957.597500", "130958.877500", "131000.157500", "131001.437500", "131002.717500", "131003.997500", "131005.277500", "131006.557500", "131007.837500", "131009.117500", "131010.397500", "131011.677500", "131012.957500", "131014.237500", "131015.517500", "131016.797500", "131018.077500", "131019.357500", "131020.637500", "131021.917500", "131023.197500", "131024.477500", "131025.757500", "131027.037500", "131028.317500", "131029.597500", "131030.877500", "131032.157500", "131033.437500", "131034.717500", "131035.997500", "131037.277500", "131038.557500", "131039.837500", "131041.117500", "131042.397500", "131043.677500", "131044.957500", "131046.237500", "131047.517500", "131048.797500", "131050.077500", "131051.357500", "131052.637500", "131053.917500", "131055.197500", "131056.477500", "131057.757500", "131059.037500", "131100.317500", "131101.597500", "131102.877500", "131104.157500", "131105.437500", "131106.717500", "131107.997500", "131109.277500", "131110.557500", "131111.837500", "131113.117500", "131114.397500", "131115.677500", "131116.957500", "131118.237500", "131119.517500", "131120.797500", "131122.077500", "131123.357500", "131124.637500", "131125.917500", "131127.197500", "131128.477500", "131129.757500", "131131.037500", "131132.317500", "131133.597500", "131134.877500", "131136.157500", "131137.437500", "131138.717500", "131139.997500", "131141.277500", "131142.557500", "131143.837500", "131145.117500", "131146.397500", "131147.677500", "131148.957500", "131150.237500", "131151.517500", "131152.797500", "131154.077500", "131155.357500", "131156.637500", "131157.917500", "131159.197500", "131200.477500", "131201.757500", "131203.037500", "131204.317500", "131205.597500", "131206.877500", "131208.157500", "131209.437500", "131210.717500", "131211.997500", "131213.277500", "131214.557500", "131215.837500", "131217.117500", "131218.397500", "131219.677500", "131220.957500", "131222.237500", "131223.517500", "131224.797500", "131226.077500", "131227.357500", "131228.637500", "131229.917500", "131231.197500", "131232.477500", "131233.757500", "131235.037500", "131236.317500", "131237.597500", "131238.877500", "131240.157500", "131241.437500", "131242.717500", "131243.997500", "131245.277500", "131246.557500", "131247.837500", "131249.117500", "131250.397500", "131251.677500", "131252.957500", "131254.237500", "131255.517500", "131256.797500", "131258.077500", "131259.357500", "131300.637500", "131301.917500", "131303.197500", "131304.477500", "131305.757500", "131307.037500", "131308.317500", "131309.597500", "131310.877500", "131312.157500", "131313.437500", "131314.717500", "131315.997500", "131317.277500", "131318.557500", "131319.837500", "131321.117500", "131322.397500", "131323.677500", "131324.957500", "131326.237500", "131327.517500", "131328.797500", "131330.077500", "131331.357500", "131332.637500", "131333.917500", "131335.197500", "131336.477500", "131337.757500", "131339.037500", "131340.317500", "131341.597500", "131342.877500", "131344.157500", "131345.437500", "131346.717500", "131347.997500", "131349.277500", "131350.557500", "131351.837500", "131353.117500", "131354.397500", "131355.677500", "131356.957500", "131358.237500", "131359.517500", "131400.797500", "131402.077500", "131403.357500", "131404.637500", "131405.917500", "131407.197500", "131408.477500", "131409.757500", "131411.037500", "131412.317500", "131413.597500", "131414.877500", "131416.157500", "131417.437500", "131418.717500", "131419.997500", "131421.277500", "131422.557500", "131423.837500", "131425.117500", "131426.397500", "131427.677500", "131428.957500", "131430.237500", "131431.517500", "131432.797500", "131434.077500", "131435.357500", "131436.637500", "131437.917500", "131439.197500", "131440.477500", "131441.757500", "131443.037500", "131444.317500", "131445.597500", "131446.877500", "131448.157500", "131449.437500", "131450.717500", "131451.997500", "131453.277500", "131454.557500", "131455.837500", "131457.117500", "131458.397500", "131459.677500", "131500.957500", "131502.237500", "131503.517500", "131504.797500", "131506.077500", "131507.357500", "131508.637500", "131509.917500", "131511.197500", "131512.477500", "131513.757500", "131515.037500", "131516.317500", "131517.597500", "131518.877500", "131520.157500", "131521.437500", "131522.717500", "131523.997500", "131525.277500", "131526.557500", "131527.837500", "131529.117500", "131530.397500", "131531.677500", "131532.957500", "131534.237500", "131535.517500", "131536.797500", "131538.077500", "131539.357500", "131540.637500", "131541.917500", "131543.197500", "131544.477500", "131545.757500", "131547.037500", "131548.317500", "131549.597500", "131550.877500", "131552.157500", "131553.437500", "131554.717500", "131555.997500", "131557.277500", "131558.557500", "131559.837500", "131601.117500", "131602.397500", "131603.677500", "131604.957500", "131606.237500", "131607.517500", "131608.797500", "131610.077500", "131611.357500", "131612.637500", "131613.917500", "131615.197500", "131616.477500", "131617.757500", "131619.037500", "131620.317500", "131621.597500", "131622.877500", "131624.157500", "131625.437500", "131626.717500", "131627.997500", "131629.277500", "131630.557500", "131631.837500", "131633.117500", "131634.397500", "131635.677500", "131636.957500", "131638.237500", "131639.517500", "131640.797500", "131642.077500", "131643.357500", "131644.637500", "131645.917500", "131647.197500", "131648.477500", "131649.757500", "131651.037500", "131652.317500", "131653.597500", "131654.877500", "131656.157500", "131657.437500", "131658.717500", "131659.997500", "131701.277500", "131702.557500", "131703.837500", "131705.117500", "131706.397500", "131707.677500", "131708.957500", "131710.237500", "131711.517500", "131712.797500", "131714.077500", "131715.357500", "131716.637500"],
      "ContentTime": ["130951.746000", "130951.749000", "130951.760000", "130951.763000", "130951.766000", "130951.769000", "130951.772000", "130951.775000", "130951.784000", "130951.787000", "130951.790000", "130951.793000", "130951.796000", "130951.799000", "130951.808000", "130951.811000", "130951.814000", "130951.817000", "130951.820000", "130951.823000", "130951.826000", "130951.829000", "130951.832000", "130951.835000", "131031.742000", "131031.745000", "131031.748000", "131031.760000", "131031.763000", "131031.766000", "131031.769000", "131031.772000", "131031.775000", "131031.778000", "131031.781000", "131031.784000", "131031.787000", "131031.790000", "131031.793000", "131031.796000", "131031.799000", "131031.802000", "131031.805000", "131031.815000", "131031.818000", "131031.821000", "131031.824000", "131031.827000", "131031.830000", "131031.833000", "131031.836000", "131031.839000", "131031.853000", "131031.855000", "131031.858000", "131111.741000", "131111.744000", "131111.747000", "131111.750000", "131111.753000", "131111.756000", "131111.759000", "131111.762000", "131111.765000", "131111.768000", "131111.771000", "131111.774000", "131111.777000", "131111.780000", "131111.783000", "131111.786000", "131111.789000", "131111.792000", "131111.795000", "131111.798000", "131111.801000", "131111.804000", "131111.807000", "131111.810000", "131111.813000", "131111.816000", "131111.819000", "131111.822000", "131111.825000", "131111.828000", "131111.831000", "131151.741000", "131151.744000", "131151.747000", "131151.750000", "131151.753000", "131151.756000", "131151.759000", "131151.762000", "131151.765000", "131151.778000", "131151.781000", "131151.784000", "131151.787000", "131151.790000", "131151.793000", "131151.796000", "131151.799000", "131151.802000", "131151.805000", "131151.808000", "131151.811000", "131151.814000", "131151.817000", "131151.820000", "131151.823000", "131151.826000", "131151.829000", "131151.832000", "131151.835000", "131151.838000", "131151.841000", "131151.845000", "131231.741000", "131231.744000", "131231.747000", "131231.750000", "131231.753000", "131231.756000", "131231.760000", "131231.762000", "131231.765000", "131231.769000", "131231.772000", "131231.774000", "131231.777000", "131231.781000", "131231.783000", "131231.786000", "131231.789000", "131231.792000", "131231.795000", "131231.799000", "131231.802000", "131231.805000", "131231.808000", "131231.811000", "131231.814000", "131231.817000", "131231.820000", "131231.823000", "131231.826000", "131231.829000", "131231.832000", "131311.741000", "131311.745000", "131311.748000", "131311.751000", "131311.754000", "131311.757000", "131311.760000", "131311.763000", "131311.766000", "131311.769000", "131311.772000", "131311.782000", "131311.785000", "131311.788000", "131311.791000", "131311.794000", "131311.797000", "131311.800000", "131311.803000", "131311.806000", "131311.809000", "131311.812000", "131311.815000", "131311.818000", "131311.827000", "131311.847000", "131311.850000", "131311.853000", "131311.856000", "131311.859000", "131311.862000", "131351.742000", "131351.745000", "131351.748000", "131351.751000", "131351.754000", "131351.757000", "131351.760000", "131351.764000", "131351.767000", "131351.770000", "131351.773000", "131351.776000", "131351.779000", "131351.782000", "131351.785000", "131351.788000", "131351.791000", "131351.794000", "131351.797000", "131351.800000", "131351.803000", "131351.806000", "131351.809000", "131351.812000", "131351.815000", "131351.818000", "131351.821000", "131351.824000", "131351.827000", "131351.830000", "131351.833000", "131431.741000", "131431.744000", "131431.747000", "131431.750000", "131431.753000", "131431.756000", "131431.759000", "131431.769000", "131431.773000", "131431.776000", "131431.778000", "131431.782000", "131431.785000", "131431.788000", "131431.791000", "131431.794000", "131431.797000", "131431.800000", "131431.803000", "131431.806000", "131431.809000", "131431.812000", "131431.815000", "131431.818000", "131431.821000", "131431.824000", "131431.832000", "131431.835000", "131431.838000", "131431.841000", "131431.844000", "131431.847000", "131451.741000", "131451.744000", "131451.748000", "131451.751000", "131451.754000", "131451.757000", "131451.760000", "131451.763000", "131451.766000", "131451.769000", "131451.772000", "131451.775000", "131451.778000", "131451.781000", "131451.784000", "131531.741000", "131531.745000", "131531.748000", "131531.751000", "131531.754000", "131531.757000", "131531.761000", "131531.765000", "131531.769000", "131531.772000", "131531.775000", "131531.778000", "131531.781000", "131531.784000", "131531.787000", "131531.790000", "131531.793000", "131531.796000", "131531.799000", "131531.802000", "131531.805000", "131531.808000", "131531.811000", "131531.814000", "131531.817000", "131531.820000", "131531.823000", "131531.826000", "131531.832000", "131531.835000", "131531.838000", "131611.742000", "131611.745000", "131611.748000", "131611.751000", "131611.754000", "131611.757000", "131611.761000", "131611.764000", "131611.766000", "131611.770000", "131611.773000", "131611.776000", "131611.779000", "131611.782000", "131611.785000", "131611.788000", "131611.791000", "131611.794000", "131611.797000", "131611.800000", "131611.803000", "131611.806000", "131611.809000", "131611.812000", "131611.815000", "131611.818000", "131611.821000", "131611.824000", "131611.827000", "131611.830000", "131611.833000", "131611.836000", "131651.741000", "131651.744000", "131651.747000", "131651.750000", "131651.754000", "131651.757000", "131651.760000", "131651.763000", "131651.766000", "131651.769000", "131651.772000", "131651.775000", "131651.778000", "131651.781000", "131651.784000", "131651.787000", "131651.790000", "131651.793000", "131651.796000", "131651.799000", "131651.802000", "131651.805000", "131651.808000", "131651.811000", "131651.814000", "131651.817000", "131651.820000", "131651.823000", "131651.827000", "131651.830000", "131651.833000", "131717.996000", "131718.000000", "131718.003000", "131718.007000", "131718.010000", "131718.013000", "131718.016000", "131718.019000", "131718.022000", "131718.035000", "131718.038000", "131718.042000", "131718.045000", "131718.048000", "131718.051000", "131718.054000", "131718.057000", "131718.060000", "131718.063000", "131718.066000", "131718.069000"],
      "InstanceCreationTime": ["130951.746000", "130951.749000", "130951.760000", "130951.763000", "130951.766000", "130951.769000", "130951.772000", "130951.775000", "130951.784000", "130951.787000", "130951.790000", "130951.793000", "130951.796000", "130951.799000", "130951.808000", "130951.811000", "130951.814000", "130951.817000", "130951.820000", "130951.823000", "130951.826000", "130951.829000", "130951.832000", "130951.835000", "131031.742000", "131031.745000", "131031.748000", "131031.760000", "131031.763000", "131031.766000", "131031.769000", "131031.772000", "131031.775000", "131031.778000", "131031.781000", "131031.784000", "131031.787000", "131031.790000", "131031.793000", "131031.796000", "131031.799000", "131031.802000", "131031.805000", "131031.815000", "131031.818000", "131031.821000", "131031.824000", "131031.827000", "131031.830000", "131031.833000", "131031.836000", "131031.839000", "131031.853000", "131031.855000", "131031.858000", "131111.741000", "131111.744000", "131111.747000", "131111.750000", "131111.753000", "131111.756000", "131111.759000", "131111.762000", "131111.765000", "131111.768000", "131111.771000", "131111.774000", "131111.777000", "131111.780000", "131111.783000", "131111.786000", "131111.789000", "131111.792000", "131111.795000", "131111.798000", "131111.801000", "131111.804000", "131111.807000", "131111.810000", "131111.813000", "131111.816000", "131111.819000", "131111.822000", "131111.825000", "131111.828000", "131111.831000", "131151.741000", "131151.744000", "131151.747000", "131151.750000", "131151.753000", "131151.756000", "131151.759000", "131151.762000", "131151.765000", "131151.778000", "131151.781000", "131151.784000", "131151.787000", "131151.790000", "131151.793000", "131151.796000", "131151.799000", "131151.802000", "131151.805000", "131151.808000", "131151.811000", "131151.814000", "131151.817000", "131151.820000", "131151.823000", "131151.826000", "131151.829000", "131151.832000", "131151.835000", "131151.838000", "131151.841000", "131151.845000", "131231.741000", "131231.744000", "131231.747000", "131231.750000", "131231.753000", "131231.756000", "131231.760000", "131231.762000", "131231.765000", "131231.769000", "131231.772000", "131231.774000", "131231.777000", "131231.781000", "131231.783000", "131231.786000", "131231.789000", "131231.792000", "131231.795000", "131231.799000", "131231.802000", "131231.805000", "131231.808000", "131231.811000", "131231.814000", "131231.817000", "131231.820000", "131231.823000", "131231.826000", "131231.829000", "131231.832000", "131311.741000", "131311.745000", "131311.748000", "131311.751000", "131311.754000", "131311.757000", "131311.760000", "131311.763000", "131311.766000", "131311.769000", "131311.772000", "131311.782000", "131311.785000", "131311.788000", "131311.791000", "131311.794000", "131311.797000", "131311.800000", "131311.803000", "131311.806000", "131311.809000", "131311.812000", "131311.815000", "131311.818000", "131311.827000", "131311.847000", "131311.850000", "131311.853000", "131311.856000", "131311.859000", "131311.862000", "131351.742000", "131351.745000", "131351.748000", "131351.751000", "131351.754000", "131351.757000", "131351.760000", "131351.764000", "131351.767000", "131351.770000", "131351.773000", "131351.776000", "131351.779000", "131351.782000", "131351.785000", "131351.788000", "131351.791000", "131351.794000", "131351.797000", "131351.800000", "131351.803000", "131351.806000", "131351.809000", "131351.812000", "131351.815000", "131351.818000", "131351.821000", "131351.824000", "131351.827000", "131351.830000", "131351.833000", "131431.741000", "131431.744000", "131431.747000", "131431.750000", "131431.753000", "131431.756000", "131431.759000", "131431.769000", "131431.773000", "131431.776000", "131431.778000", "131431.782000", "131431.785000", "131431.788000", "131431.791000", "131431.794000", "131431.797000", "131431.800000", "131431.803000", "131431.806000", "131431.809000", "131431.812000", "131431.815000", "131431.818000", "131431.821000", "131431.824000", "131431.832000", "131431.835000", "131431.838000", "131431.841000", "131431.844000", "131431.847000", "131451.741000", "131451.744000", "131451.748000", "131451.751000", "131451.754000", "131451.757000", "131451.760000", "131451.763000", "131451.766000", "131451.769000", "131451.772000", "131451.775000", "131451.778000", "131451.781000", "131451.784000", "131531.741000", "131531.745000", "131531.748000", "131531.751000", "131531.754000", "131531.757000", "131531.761000", "131531.765000", "131531.769000", "131531.772000", "131531.775000", "131531.778000", "131531.781000", "131531.784000", "131531.787000", "131531.790000", "131531.793000", "131531.796000", "131531.799000", "131531.802000", "131531.805000", "131531.808000", "131531.811000", "131531.814000", "131531.817000", "131531.820000", "131531.823000", "131531.826000", "131531.832000", "131531.835000", "131531.838000", "131611.742000", "131611.745000", "131611.748000", "131611.751000", "131611.754000", "131611.757000", "131611.761000", "131611.764000", "131611.766000", "131611.770000", "131611.773000", "131611.776000", "131611.779000", "131611.782000", "131611.785000", "131611.788000", "131611.791000", "131611.794000", "131611.797000", "131611.800000", "131611.803000", "131611.806000", "131611.809000", "131611.812000", "131611.815000", "131611.818000", "131611.821000", "131611.824000", "131611.827000", "131611.830000", "131611.833000", "131611.836000", "131651.741000", "131651.744000", "131651.747000", "131651.750000", "131651.754000", "131651.757000", "131651.760000", "131651.763000", "131651.766000", "131651.769000", "131651.772000", "131651.775000", "131651.778000", "131651.781000", "131651.784000", "131651.787000", "131651.790000", "131651.793000", "131651.796000", "131651.799000", "131651.802000", "131651.805000", "131651.808000", "131651.811000", "131651.814000", "131651.817000", "131651.820000", "131651.823000", "131651.827000", "131651.830000", "131651.833000", "131717.996000", "131718.000000", "131718.003000", "131718.007000", "131718.010000", "131718.013000", "131718.016000", "131718.019000", "131718.022000", "131718.035000", "131718.038000", "131718.042000", "131718.045000", "131718.048000", "131718.051000", "131718.054000", "131718.057000", "131718.060000", "131718.063000", "131718.066000", "131718.069000"],
      "InstanceNumber": [1, 2, 3, 4, 5, 6, 7, 8, 9, 10, 11, 12, 13, 14, 15, 16, 17, 18, 19, 20, 21, 22, 23, 24, 25, 26, 27, 28, 29, 30, 31, 32, 33, 34, 35, 36, 37, 38, 39, 40, 41, 42, 43, 44, 45, 46, 47, 48, 49, 50, 51, 52, 53, 54, 55, 56, 57, 58, 59, 60, 61, 62, 63, 64, 65, 66, 67, 68, 69, 70, 71, 72, 73, 74, 75, 76, 77, 78, 79, 80, 81, 82, 83, 84, 85, 86, 87, 88, 89, 90, 91, 92, 93, 94, 95, 96, 97, 98, 99, 100, 101, 102, 103, 104, 105, 106, 107, 108, 109, 110, 111, 112, 113, 114, 115, 116, 117, 118, 119, 120, 121, 122, 123, 124, 125, 126, 127, 128, 129, 130, 131, 132, 133, 134, 135, 136, 137, 138, 139, 140, 141, 142, 143, 144, 145, 146, 147, 148, 149, 150, 151, 152, 153, 154, 155, 156, 157, 158, 159, 160, 161, 162, 163, 164, 165, 166, 167, 168, 169, 170, 171, 172, 173, 174, 175, 176, 177, 178, 179, 180, 181, 182, 183, 184, 185, 186, 187, 188, 189, 190, 191, 192, 193, 194, 195, 196, 197, 198, 199, 200, 201, 202, 203, 204, 205, 206, 207, 208, 209, 210, 211, 212, 213, 214, 215, 216, 217, 218, 219, 220, 221, 222, 223, 224, 225, 226, 227, 228, 229, 230, 231, 232, 233, 234, 235, 236, 237, 238, 239, 240, 241, 242, 243, 244, 245, 246, 247, 248, 249, 250, 251, 252, 253, 254, 255, 256, 257, 258, 259, 260, 261, 262, 263, 264, 265, 266, 267, 268, 269, 270, 271, 272, 273, 274, 275, 276, 277, 278, 279, 280, 281, 282, 283, 284, 285, 286, 287, 288, 289, 290, 291, 292, 293, 294, 295, 296, 297, 298, 299, 300, 301, 302, 303, 304, 305, 306, 307, 308, 309, 310, 311, 312, 313, 314, 315, 316, 317, 318, 319, 320, 321, 322, 323, 324, 325, 326, 327, 328, 329, 330, 331, 332, 333, 334, 335, 336, 337, 338, 339, 340, 341, 342, 343, 344, 345, 346, 347, 348, 349, 350, 351, 352, 353, 354, 355, 356, 357, 358, 359, 360, 361, 362, 363, 364, 365, 366, 367, 368, 369, 370, 371, 372, 373],
