{
  "AcquisitionMatrixPE": 108,
  "AcquisitionNumber": 1,
  "AcquisitionTime": "14:57:47.770000",
  "BandwidthPerPixelPhaseEncode": 15.964,
  "BaseResolution": 108,
  "BodyPartExamined": "BRAIN",
  "ConsistencyInfo": "N4_VE11C_LATEST_20160120",
  "ConversionSoftware": "dcm2niix",
  "ConversionSoftwareVersion": "v1.0.20180622 GCC6.3.0",
  "DerivedVendorReportedEchoSpacing": 0.000580009,
  "DeviceSerialNumber": "66054",
  "DwellTime": 2.1e-06,
  "EchoTime": 0.031,
  "EchoTrainLength": 95,
  "EffectiveEchoSpacing": 0.000580009,
  "FlipAngle": 64,
  "ImageOrientationPatientDICOM": [0.997528, 0.0653342, -0.0258608, -0.0697539, 0.876388, -0.476528],
  "ImageType": [
    "ORIGINAL",
    "PRIMARY",
    "M",
    "ND",
    "MOSAIC"
],
  "InPlanePhaseEncodingDirectionDICOM": "COL",
  "InstitutionAddress": "Chemin_des_Mines_9_Geneve_District_CH_1211",
  "InstitutionName": "Fondation_Campus_Biotech_Geneva",
  "InstitutionalDepartmentName": "Department",
  "MRAcquisitionType": "2D",
  "MagneticFieldStrength": 3,
  "Manufacturer": "Siemens",
  "ManufacturersModelName": "Prisma",
  "Modality": "MR",
  "MultibandAccelerationFactor": 4,
  "PartialFourier": 0.875,
  "PatientPosition": "HFS",
  "PercentPhaseFOV": 100,
  "PhaseEncodingDirection": "j-",
  "PhaseEncodingSteps": 95,
  "PhaseResolution": 1,
  "PixelBandwidth": 2205,
  "ProcedureStepDescription": "J.DRM_Michael",
  "ProtocolName": "Run1_bold_s4_TR1.28",
  "PulseSequenceDetails": "%SiemensSeq%_ep2d_bold",
  "ReceiveCoilActiveElements": "HC1-7;NC1,2",
  "ReceiveCoilName": "HeadNeck_64",
  "ReconMatrixPE": 108,
  "RepetitionTime": 1.28,
  "SAR": 0.0683261,
  "ScanOptions": "PFP_FS",
  "ScanningSequence": "EP",
  "SequenceName": "_epfid2d1_108",
  "SequenceVariant": "SK",
  "SeriesDescription": "Run1_bold_s4_TR1.28",
  "SeriesNumber": 5,
  "ShimSetting": [-1274, -11686, 6452, 596, 163, -271, -11, 25],
  "SliceThickness": 2,
  "SliceTiming": [0.945, 0, 0.63, 0.0775, 0.7075, 0.1575, 0.7875, 0.235, 0.865, 0.3925, 1.0225, 0.4725, 1.1025, 0.55, 1.18, 0.315, 0.945, 0, 0.63, 0.0775, 0.7075, 0.1575, 0.7875, 0.235, 0.865, 0.3925, 1.0225, 0.4725, 1.1025, 0.55, 1.18, 0.315, 0.945, 0, 0.63, 0.0775, 0.7075, 0.1575, 0.7875, 0.235, 0.865, 0.3925, 1.0225, 0.4725, 1.1025, 0.55, 1.18, 0.315, 0.945, 0, 0.63, 0.0775, 0.7075, 0.1575, 0.7875, 0.235, 0.865, 0.3925, 1.0225, 0.4725, 1.1025, 0.55, 1.18, 0.315],
  "SoftwareVersions": "syngo_MR_E11",
  "SpacingBetweenSlices": 2,
  "StationName": "AWP66054",
  "TaskName": "main",
  "TotalReadoutTime": 0.0620609,
  "TxRefAmp": 250.242,
  "dcmmeta_affine": [
    [-1.9858201742172241, -0.13886196911334991, 0.016938889399170876, 113.51445770263672],
    [-0.13006345927715302, 1.74466073513031, -0.9543081521987915, -57.41999435424805],
    [-0.051482249051332474, 0.9486438035964966, 1.7575576305389404, -93.56219482421875],
    [0.0, 0.0, 0.0, 1.0]
],
  "dcmmeta_reorient_transform": [
    [0.0, -1.0, 0.0, 107.0],
    [1.0, 0.0, 0.0, 0.0],
    [0.0, 0.0, 1.0, 0.0],
    [0.0, 0.0, 0.0, 1.0]
],
  "dcmmeta_shape": [108, 108, 64, 373],
  "dcmmeta_slice_dim": 2,
  "dcmmeta_version": 0.6,
  "global": {
    "const": {
      "AccessionNumber": "",
      "AcquisitionMatrix": [108, 0, 0, 108],
      "AngioFlag": "N",
      "BitsAllocated": 16,
      "BitsStored": 12,
      "BodyPartExamined": "BRAIN",
      "Columns": 864,
      "EchoNumbers": 1,
      "EchoTime": 31.0,
      "EchoTrainLength": 95,
      "FlipAngle": 64.0,
      "HighBit": 11,
      "ImageOrientationPatient": [0.99752827477983, 0.06533419797487, -0.0258608505229, -0.0697539211808, 0.87638771632237, -0.4765280276743],
      "ImagePositionPatient": [-796.80643909926, -837.9044602898, 385.99032548377],
      "ImageType": [
        "ORIGINAL",
        "PRIMARY",
        "M",
        "ND",
        "MOSAIC"
],
      "ImagedNucleus": "1H",
      "ImagingFrequency": 123.257405,
      "InPlanePhaseEncodingDirection": "COL",
      "MRAcquisitionType": "2D",
      "MagneticFieldStrength": 3.0,
      "Manufacturer": "SIEMENS",
      "ManufacturerModelName": "Prisma",
      "Modality": "MR",
      "NumberOfAverages": 1.0,
      "NumberOfPhaseEncodingSteps": 95,
      "PercentPhaseFieldOfView": 100.0,
      "PercentSampling": 100.0,
      "PerformedProcedureStepStartTime": "145221.335000",
      "PhotometricInterpretation": "MONOCHROME2",
      "PixelBandwidth": 2205.0,
      "PixelRepresentation": 0,
      "PixelSpacing": [1.990740776062, 1.990740776062],
      "PositionReferenceIndicator": "",
      "ProtocolName": "Run1_bold_s4_TR1.28",
      "RepetitionTime": 1280.0,
      "Rows": 864,
      "SAR": 0.06832609385757,
      "SamplesPerPixel": 1,
      "ScanOptions": [
        "PFP",
        "FS"
],
      "ScanningSequence": "EP",
      "SequenceName": "*epfid2d1_108",
      "SequenceVariant": "SK",
      "SeriesDescription": "Run1_bold_s4_TR1.28",
      "SeriesNumber": 5,
      "SeriesTime": "145831.815000",
      "SliceLocation": -53.860889572088,
      "SliceThickness": 2.0,
      "SmallestImagePixelValue": 0,
      "SoftwareVersions": "syngo MR E11",
      "SpacingBetweenSlices": 2.0000000033219,
      "SpecificCharacterSet": "ISO_IR 100",
      "StudyID": "1",
      "StudyTime": "145221.266000",
      "TransmitCoilName": "Body",
      "VariableFlipAngleFlag": "N",
      "WindowCenterWidthExplanation": "Algo1",
      "dBdt": 0.0},
    "slices": {}
  },
  "time": {
    "samples": {
      "AcquisitionNumber": [1, 2, 3, 4, 5, 6, 7, 8, 9, 10, 11, 12, 13, 14, 15, 16, 17, 18, 19, 20, 21, 22, 23, 24, 25, 26, 27, 28, 29, 30, 31, 32, 33, 34, 35, 36, 37, 38, 39, 40, 41, 42, 43, 44, 45, 46, 47, 48, 49, 50, 51, 52, 53, 54, 55, 56, 57, 58, 59, 60, 61, 62, 63, 64, 65, 66, 67, 68, 69, 70, 71, 72, 73, 74, 75, 76, 77, 78, 79, 80, 81, 82, 83, 84, 85, 86, 87, 88, 89, 90, 91, 92, 93, 94, 95, 96, 97, 98, 99, 100, 101, 102, 103, 104, 105, 106, 107, 108, 109, 110, 111, 112, 113, 114, 115, 116, 117, 118, 119, 120, 121, 122, 123, 124, 125, 126, 127, 128, 129, 130, 131, 132, 133, 134, 135, 136, 137, 138, 139, 140, 141, 142, 143, 144, 145, 146, 147, 148, 149, 150, 151, 152, 153, 154, 155, 156, 157, 158, 159, 160, 161, 162, 163, 164, 165, 166, 167, 168, 169, 170, 171, 172, 173, 174, 175, 176, 177, 178, 179, 180, 181, 182, 183, 184, 185, 186, 187, 188, 189, 190, 191, 192, 193, 194, 195, 196, 197, 198, 199, 200, 201, 202, 203, 204, 205, 206, 207, 208, 209, 210, 211, 212, 213, 214, 215, 216, 217, 218, 219, 220, 221, 222, 223, 224, 225, 226, 227, 228, 229, 230, 231, 232, 233, 234, 235, 236, 237, 238, 239, 240, 241, 242, 243, 244, 245, 246, 247, 248, 249, 250, 251, 252, 253, 254, 255, 256, 257, 258, 259, 260, 261, 262, 263, 264, 265, 266, 267, 268, 269, 270, 271, 272, 273, 274, 275, 276, 277, 278, 279, 280, 281, 282, 283, 284, 285, 286, 287, 288, 289, 290, 291, 292, 293, 294, 295, 296, 297, 298, 299, 300, 301, 302, 303, 304, 305, 306, 307, 308, 309, 310, 311, 312, 313, 314, 315, 316, 317, 318, 319, 320, 321, 322, 323, 324, 325, 326, 327, 328, 329, 330, 331, 332, 333, 334, 335, 336, 337, 338, 339, 340, 341, 342, 343, 344, 345, 346, 347, 348, 349, 350, 351, 352, 353, 354, 355, 356, 357, 358, 359, 360, 361, 362, 363, 364, 365, 366, 367, 368, 369, 370, 371, 372, 373],
      "AcquisitionTime": ["145747.770000", "145749.050000", "145750.330000", "145751.610000", "145752.890000", "145754.170000", "145755.450000", "145756.730000", "145758.010000", "145759.290000", "145800.570000", "145801.850000", "145803.130000", "145804.410000", "145805.690000", "145806.970000", "145808.250000", "145809.530000", "145810.810000", "145812.090000", "145813.370000", "145814.650000", "145815.930000", "145817.210000", "145818.490000", "145819.770000", "145821.050000", "145822.330000", "145823.610000", "145824.890000", "145826.170000", "145827.450000", "145828.730000", "145830.010000", "145831.290000", "145832.570000", "145833.850000", "145835.130000", "145836.410000", "145837.690000", "145838.970000", "145840.250000", "145841.530000", "145842.810000", "145844.090000", "145845.370000", "145846.650000", "145847.930000", "145849.210000", "145850.490000", "145851.770000", "145853.050000", "145854.330000", "145855.610000", "145856.890000", "145858.170000", "145859.450000", "145900.730000", "145902.010000", "145903.290000", "145904.570000", "145905.850000", "145907.130000", "145908.410000", "145909.690000", "145910.970000", "145912.250000", "145913.530000", "145914.810000", "145916.090000", "145917.370000", "145918.650000", "145919.930000", "145921.210000", "145922.490000", "145923.770000", "145925.050000", "145926.330000", "145927.610000", "145928.890000", "145930.170000", "145931.450000", "145932.730000", "145934.010000", "145935.290000", "145936.570000", "145937.850000", "145939.130000", "145940.410000", "145941.690000", "145942.970000", "145944.250000", "145945.530000", "145946.810000", "145948.090000", "145949.370000", "145950.650000", "145951.930000", "145953.210000", "145954.490000", "145955.770000", "145957.050000", "145958.330000", "145959.610000", "150000.890000", "150002.170000", "150003.450000", "150004.730000", "150006.010000", "150007.290000", "150008.570000", "150009.850000", "150011.130000", "150012.410000", "150013.690000", "150014.970000", "150016.250000", "150017.530000", "150018.810000", "150020.090000", "150021.370000", "150022.650000", "150023.930000", "150025.210000", "150026.490000", "150027.770000", "150029.050000", "150030.330000", "150031.610000", "150032.890000", "150034.170000", "150035.450000", "150036.730000", "150038.010000", "150039.290000", "150040.570000", "150041.850000", "150043.130000", "150044.410000", "150045.690000", "150046.970000", "150048.250000", "150049.530000", "150050.810000", "150052.090000", "150053.370000", "150054.650000", "150055.930000", "150057.210000", "150058.490000", "150059.770000", "150101.050000", "150102.330000", "150103.610000", "150104.890000", "150106.170000", "150107.450000", "150108.730000", "150110.010000", "150111.290000", "150112.570000", "150113.850000", "150115.130000", "150116.410000", "150117.690000", "150118.970000", "150120.250000", "150121.530000", "150122.810000", "150124.090000", "150125.370000", "150126.650000", "150127.930000", "150129.210000", "150130.490000", "150131.770000", "150133.050000", "150134.330000", "150135.610000", "150136.890000", "150138.170000", "150139.450000", "150140.730000", "150142.010000", "150143.290000", "150144.570000", "150145.850000", "150147.130000", "150148.410000", "150149.690000", "150150.970000", "150152.250000", "150153.530000", "150154.810000", "150156.090000", "150157.370000", "150158.650000", "150159.930000", "150201.210000", "150202.490000", "150203.770000", "150205.050000", "150206.330000", "150207.610000", "150208.890000", "150210.170000", "150211.450000", "150212.730000", "150214.010000", "150215.290000", "150216.570000", "150217.850000", "150219.130000", "150220.410000", "150221.690000", "150222.970000", "150224.250000", "150225.530000", "150226.810000", "150228.090000", "150229.370000", "150230.650000", "150231.930000", "150233.210000", "150234.490000", "150235.770000", "150237.050000", "150238.330000", "150239.610000", "150240.890000", "150242.170000", "150243.450000", "150244.730000", "150246.010000", "150247.290000", "150248.570000", "150249.850000", "150251.130000", "150252.410000", "150253.690000", "150254.970000", "150256.250000", "150257.530000", "150258.810000", "150300.090000", "150301.370000", "150302.650000", "150303.930000", "150305.210000", "150306.490000", "150307.770000", "150309.050000", "150310.330000", "150311.610000", "150312.890000", "150314.170000", "150315.450000", "150316.730000", "150318.010000", "150319.290000", "150320.570000", "150321.850000", "150323.130000", "150324.410000", "150325.690000", "150326.970000", "150328.250000", "150329.530000", "150330.810000", "150332.090000", "150333.370000", "150334.650000", "150335.930000", "150337.210000", "150338.490000", "150339.770000", "150341.050000", "150342.330000", "150343.610000", "150344.890000", "150346.170000", "150347.450000", "150348.730000", "150350.010000", "150351.290000", "150352.570000", "150353.850000", "150355.130000", "150356.410000", "150357.690000", "150358.970000", "150400.250000", "150401.530000", "150402.810000", "150404.090000", "150405.370000", "150406.650000", "150407.930000", "150409.210000", "150410.490000", "150411.770000", "150413.050000", "150414.330000", "150415.610000", "150416.890000", "150418.170000", "150419.450000", "150420.730000", "150422.010000", "150423.290000", "150424.570000", "150425.850000", "150427.130000", "150428.410000", "150429.690000", "150430.970000", "150432.250000", "150433.530000", "150434.810000", "150436.090000", "150437.370000", "150438.650000", "150439.930000", "150441.210000", "150442.490000", "150443.770000", "150445.050000", "150446.330000", "150447.610000", "150448.890000", "150450.170000", "150451.450000", "150452.730000", "150454.010000", "150455.290000", "150456.570000", "150457.850000", "150459.130000", "150500.410000", "150501.690000", "150502.970000", "150504.250000", "150505.530000", "150506.810000", "150508.090000", "150509.370000", "150510.650000", "150511.930000", "150513.210000", "150514.490000", "150515.770000", "150517.050000", "150518.330000", "150519.610000", "150520.890000", "150522.170000", "150523.450000", "150524.730000", "150526.010000", "150527.290000", "150528.570000", "150529.850000", "150531.130000", "150532.410000", "150533.690000", "150534.970000", "150536.250000", "150537.530000", "150538.810000", "150540.090000", "150541.370000", "150542.650000", "150543.930000"],
      "ContentTime": ["145831.819000", "145831.823000", "145831.826000", "145831.829000", "145831.840000", "145831.843000", "145831.846000", "145831.849000", "145831.852000", "145831.855000", "145831.858000", "145831.861000", "145831.864000", "145831.868000", "145831.872000", "145831.875000", "145831.878000", "145831.881000", "145831.884000", "145831.887000", "145831.890000", "145831.893000", "145831.896000", "145831.899000", "145831.902000", "145831.905000", "145831.908000", "145831.911000", "145831.914000", "145831.917000", "145831.920000", "145831.923000", "145831.926000", "145831.929000", "145911.814000", "145911.818000", "145911.821000", "145911.824000", "145911.826000", "145911.830000", "145911.833000", "145911.835000", "145911.838000", "145911.842000", "145911.844000", "145911.847000", "145911.850000", "145911.853000", "145911.856000", "145911.859000", "145911.862000", "145911.865000", "145911.868000", "145911.871000", "145911.874000", "145911.877000", "145911.880000", "145911.883000", "145911.886000", "145911.889000", "145911.892000", "145911.895000", "145911.898000", "145911.901000", "145911.904000", "145951.814000", "145951.817000", "145951.820000", "145951.823000", "145951.833000", "145951.836000", "145951.839000", "145951.842000", "145951.845000", "145951.848000", "145951.851000", "145951.854000", "145951.857000", "145951.860000", "145951.863000", "145951.866000", "145951.869000", "145951.872000", "145951.875000", "145951.878000", "145951.881000", "145951.884000", "145951.887000", "145951.890000", "145951.893000", "145951.896000", "145951.899000", "145951.902000", "145951.905000", "145951.908000", "145951.911000", "145951.914000", "150031.815000", "150031.818000", "150031.836000", "150031.839000", "150031.842000", "150031.845000", "150031.848000", "150031.851000", "150031.854000", "150031.857000", "150031.860000", "150031.863000", "150031.866000", "150031.869000", "150031.872000", "150031.875000", "150031.878000", "150031.881000", "150031.884000", "150031.887000", "150031.890000", "150031.893000", "150031.896000", "150031.899000", "150031.902000", "150031.905000", "150031.908000", "150031.911000", "150031.914000", "150031.917000", "150031.920000", "150111.814000", "150111.817000", "150111.820000", "150111.823000", "150111.826000", "150111.829000", "150111.832000", "150111.836000", "150111.838000", "150111.841000", "150111.844000", "150111.848000", "150111.850000", "150111.853000", "150111.856000", "150111.859000", "150111.862000", "150111.867000", "150111.870000", "150111.873000", "150111.876000", "150111.879000", "150111.882000", "150111.885000", "150111.888000", "150111.891000", "150111.894000", "150111.897000", "150111.900000", "150111.903000", "150111.906000", "150151.814000", "150151.817000", "150151.820000", "150151.823000", "150151.826000", "150151.829000", "150151.832000", "150151.835000", "150151.838000", "150151.841000", "150151.844000", "150151.847000", "150151.850000", "150151.853000", "150151.856000", "150151.859000", "150151.862000", "150151.865000", "150151.869000", "150151.871000", "150151.874000", "150151.877000", "150151.880000", "150151.883000", "150151.886000", "150151.889000", "150151.893000", "150151.895000", "150151.899000", "150151.901000", "150151.905000", "150231.815000", "150231.878000", "150231.881000", "150231.885000", "150231.888000", "150231.891000", "150231.893000", "150231.897000", "150231.900000", "150231.903000", "150231.906000", "150231.909000", "150231.912000", "150231.915000", "150231.918000", "150231.921000", "150231.924000", "150231.927000", "150231.930000", "150231.933000", "150231.936000", "150231.939000", "150231.942000", "150231.945000", "150231.948000", "150231.951000", "150231.954000", "150231.957000", "150231.960000", "150231.963000", "150231.969000", "150231.972000", "150311.814000", "150311.818000", "150311.821000", "150311.824000", "150311.827000", "150311.830000", "150311.833000", "150311.836000", "150311.839000", "150311.842000", "150311.845000", "150311.848000", "150311.851000", "150311.854000", "150311.857000", "150311.860000", "150311.863000", "150311.866000", "150311.869000", "150311.872000", "150311.875000", "150311.878000", "150311.881000", "150311.884000", "150311.887000", "150311.890000", "150311.893000", "150311.896000", "150311.899000", "150311.902000", "150311.905000", "150351.814000", "150351.817000", "150351.820000", "150351.823000", "150351.826000", "150351.829000", "150351.832000", "150351.835000", "150351.839000", "150351.841000", "150351.844000", "150351.847000", "150351.851000", "150351.854000", "150351.857000", "150351.859000", "150351.864000", "150351.867000", "150351.870000", "150351.873000", "150351.876000", "150351.880000", "150351.882000", "150351.885000", "150351.889000", "150351.892000", "150351.895000", "150351.898000", "150351.901000", "150351.904000", "150351.907000", "150431.814000", "150431.817000", "150431.836000", "150431.839000", "150431.842000", "150431.845000", "150431.848000", "150431.851000", "150431.854000", "150431.857000", "150431.860000", "150431.863000", "150431.866000", "150431.869000", "150431.872000", "150431.875000", "150431.878000", "150431.881000", "150431.884000", "150431.888000", "150431.891000", "150431.894000", "150431.897000", "150431.900000", "150431.903000", "150431.906000", "150431.909000", "150431.912000", "150431.915000", "150431.918000", "150431.921000", "150511.815000", "150511.818000", "150511.822000", "150511.825000", "150511.828000", "150511.831000", "150511.834000", "150511.837000", "150511.840000", "150511.844000", "150511.847000", "150511.851000", "150511.856000", "150511.859000", "150511.862000", "150511.865000", "150511.868000", "150511.871000", "150511.874000", "150511.877000", "150511.880000", "150511.884000", "150511.886000", "150511.889000", "150511.893000", "150511.896000", "150511.899000", "150511.901000", "150511.905000", "150511.908000", "150511.911000", "150545.021000", "150545.033000", "150545.036000", "150545.039000", "150545.042000", "150545.046000", "150545.049000", "150545.053000", "150545.056000", "150545.060000", "150545.063000", "150545.067000", "150545.070000", "150545.073000", "150545.079000", "150545.083000", "150545.086000", "150545.093000", "150545.097000", "150545.100000", "150545.103000", "150545.107000", "150545.110000", "150545.113000", "150545.116000", "150545.119000", "150545.122000"],
      "InstanceCreationTime": ["145831.819000", "145831.823000", "145831.826000", "145831.829000", "145831.840000", "145831.843000", "145831.846000", "145831.849000", "145831.852000", "145831.855000", "145831.858000", "145831.861000", "145831.864000", "145831.868000", "145831.872000", "145831.875000", "145831.878000", "145831.881000", "145831.884000", "145831.887000", "145831.890000", "145831.893000", "145831.896000", "145831.899000", "145831.902000", "145831.905000", "145831.908000", "145831.911000", "145831.914000", "145831.917000", "145831.920000", "145831.923000", "145831.926000", "145831.929000", "145911.814000", "145911.818000", "145911.821000", "145911.824000", "145911.826000", "145911.830000", "145911.833000", "145911.835000", "145911.838000", "145911.842000", "145911.844000", "145911.847000", "145911.850000", "145911.853000", "145911.856000", "145911.859000", "145911.862000", "145911.865000", "145911.868000", "145911.871000", "145911.874000", "145911.877000", "145911.880000", "145911.883000", "145911.886000", "145911.889000", "145911.892000", "145911.895000", "145911.898000", "145911.901000", "145911.904000", "145951.814000", "145951.817000", "145951.820000", "145951.823000", "145951.833000", "145951.836000", "145951.839000", "145951.842000", "145951.845000", "145951.848000", "145951.851000", "145951.854000", "145951.857000", "145951.860000", "145951.863000", "145951.866000", "145951.869000", "145951.872000", "145951.875000", "145951.878000", "145951.881000", "145951.884000", "145951.887000", "145951.890000", "145951.893000", "145951.896000", "145951.899000", "145951.902000", "145951.905000", "145951.908000", "145951.911000", "145951.914000", "150031.815000", "150031.818000", "150031.836000", "150031.839000", "150031.842000", "150031.845000", "150031.848000", "150031.851000", "150031.854000", "150031.857000", "150031.860000", "150031.863000", "150031.866000", "150031.869000", "150031.872000", "150031.875000", "150031.878000", "150031.881000", "150031.884000", "150031.887000", "150031.890000", "150031.893000", "150031.896000", "150031.899000", "150031.902000", "150031.905000", "150031.908000", "150031.911000", "150031.914000", "150031.917000", "150031.920000", "150111.814000", "150111.817000", "150111.820000", "150111.823000", "150111.826000", "150111.829000", "150111.832000", "150111.836000", "150111.838000", "150111.841000", "150111.844000", "150111.848000", "150111.850000", "150111.853000", "150111.856000", "150111.859000", "150111.862000", "150111.867000", "150111.870000", "150111.873000", "150111.876000", "150111.879000", "150111.882000", "150111.885000", "150111.888000", "150111.891000", "150111.894000", "150111.897000", "150111.900000", "150111.903000", "150111.906000", "150151.814000", "150151.817000", "150151.820000", "150151.823000", "150151.826000", "150151.829000", "150151.832000", "150151.835000", "150151.838000", "150151.841000", "150151.844000", "150151.847000", "150151.850000", "150151.853000", "150151.856000", "150151.859000", "150151.862000", "150151.865000", "150151.869000", "150151.871000", "150151.874000", "150151.877000", "150151.880000", "150151.883000", "150151.886000", "150151.889000", "150151.893000", "150151.895000", "150151.899000", "150151.901000", "150151.905000", "150231.815000", "150231.878000", "150231.881000", "150231.885000", "150231.888000", "150231.891000", "150231.893000", "150231.897000", "150231.900000", "150231.903000", "150231.906000", "150231.909000", "150231.912000", "150231.915000", "150231.918000", "150231.921000", "150231.924000", "150231.927000", "150231.930000", "150231.933000", "150231.936000", "150231.939000", "150231.942000", "150231.945000", "150231.948000", "150231.951000", "150231.954000", "150231.957000", "150231.960000", "150231.963000", "150231.969000", "150231.972000", "150311.814000", "150311.818000", "150311.821000", "150311.824000", "150311.827000", "150311.830000", "150311.833000", "150311.836000", "150311.839000", "150311.842000", "150311.845000", "150311.848000", "150311.851000", "150311.854000", "150311.857000", "150311.860000", "150311.863000", "150311.866000", "150311.869000", "150311.872000", "150311.875000", "150311.878000", "150311.881000", "150311.884000", "150311.887000", "150311.890000", "150311.893000", "150311.896000", "150311.899000", "150311.902000", "150311.905000", "150351.814000", "150351.817000", "150351.820000", "150351.823000", "150351.826000", "150351.829000", "150351.832000", "150351.835000", "150351.839000", "150351.841000", "150351.844000", "150351.847000", "150351.851000", "150351.854000", "150351.857000", "150351.859000", "150351.864000", "150351.867000", "150351.870000", "150351.873000", "150351.876000", "150351.880000", "150351.882000", "150351.885000", "150351.889000", "150351.892000", "150351.895000", "150351.898000", "150351.901000", "150351.904000", "150351.907000", "150431.814000", "150431.817000", "150431.836000", "150431.839000", "150431.842000", "150431.845000", "150431.848000", "150431.851000", "150431.854000", "150431.857000", "150431.860000", "150431.863000", "150431.866000", "150431.869000", "150431.872000", "150431.875000", "150431.878000", "150431.881000", "150431.884000", "150431.888000", "150431.891000", "150431.894000", "150431.897000", "150431.900000", "150431.903000", "150431.906000", "150431.909000", "150431.912000", "150431.915000", "150431.918000", "150431.921000", "150511.815000", "150511.818000", "150511.822000", "150511.825000", "150511.828000", "150511.831000", "150511.834000", "150511.837000", "150511.840000", "150511.844000", "150511.847000", "150511.851000", "150511.856000", "150511.859000", "150511.862000", "150511.865000", "150511.868000", "150511.871000", "150511.874000", "150511.877000", "150511.880000", "150511.884000", "150511.886000", "150511.889000", "150511.893000", "150511.896000", "150511.899000", "150511.901000", "150511.905000", "150511.908000", "150511.911000", "150545.021000", "150545.033000", "150545.036000", "150545.039000", "150545.042000", "150545.046000", "150545.049000", "150545.053000", "150545.056000", "150545.060000", "150545.063000", "150545.067000", "150545.070000", "150545.073000", "150545.079000", "150545.083000", "150545.086000", "150545.093000", "150545.097000", "150545.100000", "150545.103000", "150545.107000", "150545.110000", "150545.113000", "150545.116000", "150545.119000", "150545.122000"],
      "InstanceNumber": [1, 2, 3, 4, 5, 6, 7, 8, 9, 10, 11, 12, 13, 14, 15, 16, 17, 18, 19, 20, 21, 22, 23, 24, 25, 26, 27, 28, 29, 30, 31, 32, 33, 34, 35, 36, 37, 38, 39, 40, 41, 42, 43, 44, 45, 46, 47, 48, 49, 50, 51, 52, 53, 54, 55, 56, 57, 58, 59, 60, 61, 62, 63, 64, 65, 66, 67, 68, 69, 70, 71, 72, 73, 74, 75, 76, 77, 78, 79, 80, 81, 82, 83, 84, 85, 86, 87, 88, 89, 90, 91, 92, 93, 94, 95, 96, 97, 98, 99, 100, 101, 102, 103, 104, 105, 106, 107, 108, 109, 110, 111, 112, 113, 114, 115, 116, 117, 118, 119, 120, 121, 122, 123, 124, 125, 126, 127, 128, 129, 130, 131, 132, 133, 134, 135, 136, 137, 138, 139, 140, 141, 142, 143, 144, 145, 146, 147, 148, 149, 150, 151, 152, 153, 154, 155, 156, 157, 158, 159, 160, 161, 162, 163, 164, 165, 166, 167, 168, 169, 170, 171, 172, 173, 174, 175, 176, 177, 178, 179, 180, 181, 182, 183, 184, 185, 186, 187, 188, 189, 190, 191, 192, 193, 194, 195, 196, 197, 198, 199, 200, 201, 202, 203, 204, 205, 206, 207, 208, 209, 210, 211, 212, 213, 214, 215, 216, 217, 218, 219, 220, 221, 222, 223, 224, 225, 226, 227, 228, 229, 230, 231, 232, 233, 234, 235, 236, 237, 238, 239, 240, 241, 242, 243, 244, 245, 246, 247, 248, 249, 250, 251, 252, 253, 254, 255, 256, 257, 258, 259, 260, 261, 262, 263, 264, 265, 266, 267, 268, 269, 270, 271, 272, 273, 274, 275, 276, 277, 278, 279, 280, 281, 282, 283, 284, 285, 286, 287, 288, 289, 290, 291, 292, 293, 294, 295, 296, 297, 298, 299, 300, 301, 302, 303, 304, 305, 306, 307, 308, 309, 310, 311, 312, 313, 314, 315, 316, 317, 318, 319, 320, 321, 322, 323, 324, 325, 326, 327, 328, 329, 330, 331, 332, 333, 334, 335, 336, 337, 338, 339, 340, 341, 342, 343, 344, 345, 346, 347, 348, 349, 350, 351, 352, 353, 354, 355, 356, 357, 358, 359, 360, 361, 362, 363, 364, 365, 366, 367, 368, 369, 370, 371, 372, 373],
