{
  "AcquisitionMatrixPE": 108,
  "AcquisitionNumber": 1,
  "AcquisitionTime": "15:14:43.390000",
  "BandwidthPerPixelPhaseEncode": 15.964,
  "BaseResolution": 108,
  "BodyPartExamined": "BRAIN",
  "ConsistencyInfo": "N4_VE11C_LATEST_20160120",
  "ConversionSoftware": "dcm2niix",
  "ConversionSoftwareVersion": "v1.0.20180622 GCC6.3.0",
  "DerivedVendorReportedEchoSpacing": 0.000580009,
  "DeviceSerialNumber": "66054",
  "DwellTime": 2.1e-06,
  "EchoTime": 0.031,
  "EchoTrainLength": 95,
  "EffectiveEchoSpacing": 0.000580009,
  "FlipAngle": 64,
  "ImageOrientationPatientDICOM": [0.997528, 0.0653342, -0.0258608, -0.0697539, 0.876388, -0.476528],
  "ImageType": [
    "ORIGINAL",
    "PRIMARY",
    "M",
    "ND",
    "MOSAIC"
],
  "InPlanePhaseEncodingDirectionDICOM": "COL",
  "InstitutionAddress": "Chemin_des_Mines_9_Geneve_District_CH_1211",
  "InstitutionName": "Fondation_Campus_Biotech_Geneva",
  "InstitutionalDepartmentName": "Department",
  "MRAcquisitionType": "2D",
  "MagneticFieldStrength": 3,
  "Manufacturer": "Siemens",
  "ManufacturersModelName": "Prisma",
  "Modality": "MR",
  "MultibandAccelerationFactor": 4,
  "PartialFourier": 0.875,
  "PatientPosition": "HFS",
  "PercentPhaseFOV": 100,
  "PhaseEncodingDirection": "j-",
  "PhaseEncodingSteps": 95,
  "PhaseResolution": 1,
  "PixelBandwidth": 2205,
  "ProcedureStepDescription": "J.DRM_Michael",
  "ProtocolName": "Run2_bold_s4_TR1.28",
  "PulseSequenceDetails": "%SiemensSeq%_ep2d_bold",
  "ReceiveCoilActiveElements": "HC1-7;NC1,2",
  "ReceiveCoilName": "HeadNeck_64",
  "ReconMatrixPE": 108,
  "RepetitionTime": 1.28,
  "SAR": 0.0683261,
  "ScanOptions": "PFP_FS",
  "ScanningSequence": "EP",
  "SequenceName": "_epfid2d1_108",
  "SequenceVariant": "SK",
  "SeriesDescription": "Run2_bold_s4_TR1.28",
  "SeriesNumber": 7,
  "ShimSetting": [-1274, -11686, 6452, 596, 163, -271, -11, 25],
  "SliceThickness": 2,
  "SliceTiming": [0.945, 0, 0.63, 0.08, 0.71, 0.1575, 0.7875, 0.2375, 0.8675, 0.395, 1.025, 0.4725, 1.1025, 0.5525, 1.1825, 0.315, 0.945, 0, 0.63, 0.08, 0.71, 0.1575, 0.7875, 0.2375, 0.8675, 0.395, 1.025, 0.4725, 1.1025, 0.5525, 1.1825, 0.315, 0.945, 0, 0.63, 0.08, 0.71, 0.1575, 0.7875, 0.2375, 0.8675, 0.395, 1.025, 0.4725, 1.1025, 0.5525, 1.1825, 0.315, 0.945, 0, 0.63, 0.08, 0.71, 0.1575, 0.7875, 0.2375, 0.8675, 0.395, 1.025, 0.4725, 1.1025, 0.5525, 1.1825, 0.315],
  "SoftwareVersions": "syngo_MR_E11",
  "SpacingBetweenSlices": 2,
  "StationName": "AWP66054",
  "TaskName": "main",
  "TotalReadoutTime": 0.0620609,
  "TxRefAmp": 250.242,
  "dcmmeta_affine": [
    [-1.9858201742172241, -0.13886196911334991, 0.016938889399170876, 113.51445770263672],
    [-0.13006345927715302, 1.74466073513031, -0.9543081521987915, -57.41999435424805],
    [-0.051482249051332474, 0.9486438035964966, 1.7575576305389404, -93.56219482421875],
    [0.0, 0.0, 0.0, 1.0]
],
  "dcmmeta_reorient_transform": [
    [0.0, -1.0, 0.0, 107.0],
    [1.0, 0.0, 0.0, 0.0],
    [0.0, 0.0, 1.0, 0.0],
    [0.0, 0.0, 0.0, 1.0]
],
  "dcmmeta_shape": [108, 108, 64, 373],
  "dcmmeta_slice_dim": 2,
  "dcmmeta_version": 0.6,
  "global": {
    "const": {
      "AccessionNumber": "",
      "AcquisitionMatrix": [108, 0, 0, 108],
      "AngioFlag": "N",
      "BitsAllocated": 16,
      "BitsStored": 12,
      "BodyPartExamined": "BRAIN",
      "Columns": 864,
      "EchoNumbers": 1,
      "EchoTime": 31.0,
      "EchoTrainLength": 95,
      "FlipAngle": 64.0,
      "HighBit": 11,
      "ImageOrientationPatient": [0.99752827477983, 0.06533419797487, -0.0258608505229, -0.0697539211808, 0.87638771632237, -0.4765280276743],
      "ImagePositionPatient": [-796.80643909926, -837.9044602898, 385.99032548377],
      "ImageType": [
        "ORIGINAL",
        "PRIMARY",
        "M",
        "ND",
        "MOSAIC"
],
      "ImagedNucleus": "1H",
      "ImagingFrequency": 123.257403,
      "InPlanePhaseEncodingDirection": "COL",
      "MRAcquisitionType": "2D",
      "MagneticFieldStrength": 3.0,
      "Manufacturer": "SIEMENS",
      "ManufacturerModelName": "Prisma",
      "Modality": "MR",
      "NumberOfAverages": 1.0,
      "NumberOfPhaseEncodingSteps": 95,
      "PercentPhaseFieldOfView": 100.0,
      "PercentSampling": 100.0,
      "PerformedProcedureStepStartTime": "145221.335000",
      "PhotometricInterpretation": "MONOCHROME2",
      "PixelBandwidth": 2205.0,
      "PixelRepresentation": 0,
      "PixelSpacing": [1.990740776062, 1.990740776062],
      "PositionReferenceIndicator": "",
      "ProtocolName": "Run2_bold_s4_TR1.28",
      "RepetitionTime": 1280.0,
      "Rows": 864,
      "SAR": 0.06832609385757,
      "SamplesPerPixel": 1,
      "ScanOptions": [
        "PFP",
        "FS"
],
      "ScanningSequence": "EP",
      "SequenceName": "*epfid2d1_108",
      "SequenceVariant": "SK",
      "SeriesDescription": "Run2_bold_s4_TR1.28",
      "SeriesNumber": 7,
      "SeriesTime": "151451.670000",
      "SliceLocation": -53.860889572088,
      "SliceThickness": 2.0,
      "SmallestImagePixelValue": 0,
      "SoftwareVersions": "syngo MR E11",
      "SpacingBetweenSlices": 2.0000000033219,
      "SpecificCharacterSet": "ISO_IR 100",
      "StudyID": "1",
      "StudyTime": "145221.266000",
      "TransmitCoilName": "Body",
      "VariableFlipAngleFlag": "N",
      "WindowCenterWidthExplanation": "Algo1",
      "dBdt": 0.0},
    "slices": {}
  },
  "time": {
    "samples": {
      "AcquisitionNumber": [1, 2, 3, 4, 5, 6, 7, 8, 9, 10, 11, 12, 13, 14, 15, 16, 17, 18, 19, 20, 21, 22, 23, 24, 25, 26, 27, 28, 29, 30, 31, 32, 33, 34, 35, 36, 37, 38, 39, 40, 41, 42, 43, 44, 45, 46, 47, 48, 49, 50, 51, 52, 53, 54, 55, 56, 57, 58, 59, 60, 61, 62, 63, 64, 65, 66, 67, 68, 69, 70, 71, 72, 73, 74, 75, 76, 77, 78, 79, 80, 81, 82, 83, 84, 85, 86, 87, 88, 89, 90, 91, 92, 93, 94, 95, 96, 97, 98, 99, 100, 101, 102, 103, 104, 105, 106, 107, 108, 109, 110, 111, 112, 113, 114, 115, 116, 117, 118, 119, 120, 121, 122, 123, 124, 125, 126, 127, 128, 129, 130, 131, 132, 133, 134, 135, 136, 137, 138, 139, 140, 141, 142, 143, 144, 145, 146, 147, 148, 149, 150, 151, 152, 153, 154, 155, 156, 157, 158, 159, 160, 161, 162, 163, 164, 165, 166, 167, 168, 169, 170, 171, 172, 173, 174, 175, 176, 177, 178, 179, 180, 181, 182, 183, 184, 185, 186, 187, 188, 189, 190, 191, 192, 193, 194, 195, 196, 197, 198, 199, 200, 201, 202, 203, 204, 205, 206, 207, 208, 209, 210, 211, 212, 213, 214, 215, 216, 217, 218, 219, 220, 221, 222, 223, 224, 225, 226, 227, 228, 229, 230, 231, 232, 233, 234, 235, 236, 237, 238, 239, 240, 241, 242, 243, 244, 245, 246, 247, 248, 249, 250, 251, 252, 253, 254, 255, 256, 257, 258, 259, 260, 261, 262, 263, 264, 265, 266, 267, 268, 269, 270, 271, 272, 273, 274, 275, 276, 277, 278, 279, 280, 281, 282, 283, 284, 285, 286, 287, 288, 289, 290, 291, 292, 293, 294, 295, 296, 297, 298, 299, 300, 301, 302, 303, 304, 305, 306, 307, 308, 309, 310, 311, 312, 313, 314, 315, 316, 317, 318, 319, 320, 321, 322, 323, 324, 325, 326, 327, 328, 329, 330, 331, 332, 333, 334, 335, 336, 337, 338, 339, 340, 341, 342, 343, 344, 345, 346, 347, 348, 349, 350, 351, 352, 353, 354, 355, 356, 357, 358, 359, 360, 361, 362, 363, 364, 365, 366, 367, 368, 369, 370, 371, 372, 373],
      "AcquisitionTime": ["151443.390000", "151444.670000", "151445.950000", "151447.230000", "151448.510000", "151449.790000", "151451.070000", "151452.350000", "151453.630000", "151454.910000", "151456.190000", "151457.470000", "151458.750000", "151500.030000", "151501.310000", "151502.590000", "151503.870000", "151505.150000", "151506.430000", "151507.710000", "151508.990000", "151510.270000", "151511.550000", "151512.830000", "151514.110000", "151515.390000", "151516.670000", "151517.950000", "151519.230000", "151520.510000", "151521.790000", "151523.070000", "151524.350000", "151525.630000", "151526.910000", "151528.190000", "151529.470000", "151530.750000", "151532.030000", "151533.310000", "151534.590000", "151535.870000", "151537.150000", "151538.430000", "151539.710000", "151540.990000", "151542.270000", "151543.550000", "151544.830000", "151546.110000", "151547.390000", "151548.670000", "151549.950000", "151551.230000", "151552.510000", "151553.790000", "151555.070000", "151556.350000", "151557.630000", "151558.910000", "151600.190000", "151601.470000", "151602.750000", "151604.030000", "151605.310000", "151606.590000", "151607.870000", "151609.150000", "151610.430000", "151611.710000", "151612.990000", "151614.270000", "151615.550000", "151616.830000", "151618.110000", "151619.390000", "151620.670000", "151621.950000", "151623.230000", "151624.510000", "151625.790000", "151627.070000", "151628.350000", "151629.630000", "151630.910000", "151632.190000", "151633.470000", "151634.750000", "151636.030000", "151637.310000", "151638.590000", "151639.870000", "151641.150000", "151642.430000", "151643.710000", "151644.990000", "151646.270000", "151647.550000", "151648.830000", "151650.110000", "151651.390000", "151652.670000", "151653.950000", "151655.230000", "151656.510000", "151657.790000", "151659.070000", "151700.350000", "151701.630000", "151702.910000", "151704.190000", "151705.470000", "151706.750000", "151708.030000", "151709.310000", "151710.590000", "151711.870000", "151713.150000", "151714.430000", "151715.710000", "151716.990000", "151718.270000", "151719.550000", "151720.830000", "151722.110000", "151723.390000", "151724.670000", "151725.950000", "151727.230000", "151728.510000", "151729.790000", "151731.070000", "151732.350000", "151733.630000", "151734.910000", "151736.190000", "151737.470000", "151738.750000", "151740.030000", "151741.310000", "151742.590000", "151743.870000", "151745.150000", "151746.430000", "151747.710000", "151748.990000", "151750.270000", "151751.550000", "151752.830000", "151754.110000", "151755.390000", "151756.670000", "151757.950000", "151759.230000", "151800.510000", "151801.790000", "151803.070000", "151804.350000", "151805.630000", "151806.910000", "151808.190000", "151809.470000", "151810.750000", "151812.030000", "151813.310000", "151814.590000", "151815.870000", "151817.150000", "151818.430000", "151819.710000", "151820.990000", "151822.270000", "151823.550000", "151824.830000", "151826.110000", "151827.390000", "151828.670000", "151829.950000", "151831.230000", "151832.510000", "151833.790000", "151835.070000", "151836.350000", "151837.630000", "151838.910000", "151840.190000", "151841.470000", "151842.750000", "151844.030000", "151845.310000", "151846.590000", "151847.870000", "151849.150000", "151850.430000", "151851.710000", "151852.990000", "151854.270000", "151855.550000", "151856.830000", "151858.110000", "151859.390000", "151900.670000", "151901.950000", "151903.230000", "151904.510000", "151905.790000", "151907.070000", "151908.350000", "151909.630000", "151910.910000", "151912.190000", "151913.470000", "151914.750000", "151916.030000", "151917.310000", "151918.590000", "151919.870000", "151921.150000", "151922.430000", "151923.710000", "151924.990000", "151926.270000", "151927.550000", "151928.830000", "151930.110000", "151931.390000", "151932.670000", "151933.950000", "151935.230000", "151936.510000", "151937.790000", "151939.070000", "151940.350000", "151941.630000", "151942.910000", "151944.190000", "151945.470000", "151946.750000", "151948.030000", "151949.310000", "151950.590000", "151951.870000", "151953.150000", "151954.430000", "151955.710000", "151956.990000", "151958.270000", "151959.550000", "152000.830000", "152002.110000", "152003.390000", "152004.670000", "152005.950000", "152007.230000", "152008.510000", "152009.790000", "152011.070000", "152012.350000", "152013.630000", "152014.910000", "152016.190000", "152017.470000", "152018.750000", "152020.030000", "152021.310000", "152022.590000", "152023.870000", "152025.150000", "152026.430000", "152027.710000", "152028.990000", "152030.270000", "152031.550000", "152032.830000", "152034.110000", "152035.390000", "152036.670000", "152037.950000", "152039.230000", "152040.510000", "152041.790000", "152043.070000", "152044.350000", "152045.630000", "152046.910000", "152048.190000", "152049.470000", "152050.750000", "152052.030000", "152053.310000", "152054.590000", "152055.870000", "152057.150000", "152058.430000", "152059.710000", "152100.990000", "152102.270000", "152103.550000", "152104.830000", "152106.110000", "152107.390000", "152108.670000", "152109.950000", "152111.230000", "152112.510000", "152113.790000", "152115.070000", "152116.350000", "152117.630000", "152118.910000", "152120.190000", "152121.470000", "152122.750000", "152124.030000", "152125.310000", "152126.590000", "152127.870000", "152129.150000", "152130.430000", "152131.710000", "152132.990000", "152134.270000", "152135.550000", "152136.830000", "152138.110000", "152139.390000", "152140.670000", "152141.950000", "152143.230000", "152144.510000", "152145.790000", "152147.070000", "152148.350000", "152149.630000", "152150.910000", "152152.190000", "152153.470000", "152154.750000", "152156.030000", "152157.310000", "152158.590000", "152159.870000", "152201.150000", "152202.430000", "152203.710000", "152204.990000", "152206.270000", "152207.550000", "152208.830000", "152210.110000", "152211.390000", "152212.670000", "152213.950000", "152215.230000", "152216.510000", "152217.790000", "152219.070000", "152220.350000", "152221.630000", "152222.910000", "152224.190000", "152225.470000", "152226.750000", "152228.030000", "152229.310000", "152230.590000", "152231.870000", "152233.150000", "152234.430000", "152235.710000", "152236.990000", "152238.270000", "152239.550000"],
      "ContentTime": ["151451.674000", "151451.686000", "151451.689000", "151451.692000", "151451.695000", "151451.699000", "151531.669000", "151531.673000", "151531.676000", "151531.680000", "151531.683000", "151531.698000", "151531.701000", "151531.704000", "151531.707000", "151531.710000", "151531.713000", "151531.716000", "151531.719000", "151531.722000", "151531.725000", "151531.728000", "151531.732000", "151531.735000", "151531.739000", "151531.742000", "151531.745000", "151531.753000", "151531.756000", "151531.759000", "151531.763000", "151531.766000", "151531.769000", "151531.772000", "151531.775000", "151531.778000", "151531.781000", "151611.669000", "151611.684000", "151611.687000", "151611.690000", "151611.693000", "151611.696000", "151611.699000", "151611.702000", "151611.705000", "151611.708000", "151611.711000", "151611.714000", "151611.717000", "151611.720000", "151611.733000", "151611.736000", "151611.739000", "151611.742000", "151611.745000", "151611.748000", "151611.751000", "151611.754000", "151611.757000", "151611.760000", "151611.763000", "151611.767000", "151611.773000", "151611.778000", "151611.781000", "151611.788000", "151611.791000", "151651.670000", "151651.673000", "151651.676000", "151651.679000", "151651.682000", "151651.685000", "151651.688000", "151651.691000", "151651.694000", "151651.697000", "151651.700000", "151651.703000", "151651.706000", "151651.709000", "151651.712000", "151651.715000", "151651.718000", "151651.721000", "151651.724000", "151651.727000", "151651.731000", "151651.734000", "151651.737000", "151651.739000", "151651.743000", "151651.745000", "151651.748000", "151651.751000", "151651.754000", "151651.757000", "151651.760000", "151651.763000", "151731.669000", "151731.672000", "151731.675000", "151731.678000", "151731.682000", "151731.685000", "151731.688000", "151731.691000", "151731.694000", "151731.697000", "151731.700000", "151731.703000", "151731.706000", "151731.709000", "151731.712000", "151731.715000", "151731.718000", "151731.721000", "151731.724000", "151731.727000", "151731.730000", "151731.733000", "151731.736000", "151731.740000", "151731.743000", "151731.746000", "151731.757000", "151731.760000", "151731.763000", "151731.766000", "151731.769000", "151811.669000", "151811.672000", "151811.675000", "151811.678000", "151811.681000", "151811.685000", "151811.687000", "151811.690000", "151811.693000", "151811.697000", "151811.700000", "151811.703000", "151811.706000", "151811.709000", "151811.712000", "151811.715000", "151811.718000", "151811.721000", "151811.724000", "151811.727000", "151811.730000", "151811.733000", "151811.736000", "151811.739000", "151811.742000", "151811.745000", "151811.748000", "151811.751000", "151811.754000", "151811.757000", "151811.760000", "151851.670000", "151851.673000", "151851.676000", "151851.679000", "151851.682000", "151851.685000", "151851.688000", "151851.691000", "151851.694000", "151851.697000", "151851.700000", "151851.703000", "151851.706000", "151851.709000", "151851.712000", "151851.715000", "151851.719000", "151851.722000", "151851.725000", "151851.728000", "151851.731000", "151851.734000", "151851.737000", "151851.750000", "151851.754000", "151851.757000", "151851.759000", "151851.762000", "151851.766000", "151851.769000", "151851.772000", "151931.669000", "151931.672000", "151931.675000", "151931.678000", "151931.681000", "151931.684000", "151931.687000", "151931.690000", "151931.693000", "151931.696000", "151931.699000", "151931.702000", "151931.705000", "151931.708000", "151931.711000", "151931.714000", "151931.717000", "151931.721000", "151931.723000", "151931.726000", "151931.729000", "151931.732000", "151931.735000", "151931.738000", "151931.741000", "151931.744000", "151931.747000", "151931.750000", "151931.753000", "151931.756000", "151931.759000", "151931.762000", "152011.669000", "152011.672000", "152011.675000", "152011.679000", "152011.682000", "152011.695000", "152011.698000", "152011.701000", "152011.704000", "152011.707000", "152011.709000", "152011.713000", "152011.715000", "152011.718000", "152011.721000", "152011.725000", "152011.728000", "152011.731000", "152011.734000", "152011.737000", "152011.740000", "152011.743000", "152011.745000", "152011.749000", "152011.752000", "152011.755000", "152011.758000", "152011.761000", "152011.764000", "152011.767000", "152011.788000", "152051.669000", "152051.672000", "152051.675000", "152051.678000", "152051.681000", "152051.684000", "152051.687000", "152051.690000", "152051.693000", "152051.696000", "152051.699000", "152051.702000", "152051.705000", "152051.708000", "152051.711000", "152051.714000", "152051.717000", "152051.720000", "152051.723000", "152051.726000", "152051.729000", "152051.732000", "152051.735000", "152051.738000", "152051.741000", "152051.744000", "152051.747000", "152051.750000", "152051.753000", "152051.756000", "152051.759000", "152131.669000", "152131.672000", "152131.675000", "152131.678000", "152131.681000", "152131.685000", "152131.688000", "152131.691000", "152131.694000", "152131.697000", "152131.700000", "152131.703000", "152131.706000", "152131.709000", "152131.712000", "152131.715000", "152131.718000", "152131.721000", "152131.724000", "152131.727000", "152131.730000", "152131.733000", "152131.736000", "152131.739000", "152131.743000", "152131.748000", "152131.753000", "152131.756000", "152131.760000", "152131.763000", "152131.766000", "152211.669000", "152211.672000", "152211.675000", "152211.679000", "152211.681000", "152211.684000", "152211.688000", "152211.691000", "152211.694000", "152211.697000", "152211.700000", "152211.703000", "152211.706000", "152211.708000", "152211.712000", "152211.715000", "152211.718000", "152211.721000", "152211.724000", "152211.727000", "152211.730000", "152211.733000", "152211.736000", "152211.739000", "152211.742000", "152211.745000", "152211.748000", "152211.751000", "152211.754000", "152211.757000", "152211.760000", "152211.763000", "152240.877000", "152240.881000", "152240.884000", "152240.888000", "152240.892000", "152240.896000", "152240.900000", "152240.903000", "152240.907000", "152240.910000", "152240.914000", "152240.918000", "152240.921000", "152240.925000", "152240.928000", "152240.931000", "152240.934000", "152240.937000", "152240.941000", "152240.944000", "152240.948000", "152240.951000", "152240.954000"],
      "InstanceCreationTime": ["151451.674000", "151451.686000", "151451.689000", "151451.692000", "151451.695000", "151451.699000", "151531.669000", "151531.673000", "151531.676000", "151531.680000", "151531.683000", "151531.698000", "151531.701000", "151531.704000", "151531.707000", "151531.710000", "151531.713000", "151531.716000", "151531.719000", "151531.722000", "151531.725000", "151531.728000", "151531.732000", "151531.735000", "151531.739000", "151531.742000", "151531.745000", "151531.753000", "151531.756000", "151531.759000", "151531.763000", "151531.766000", "151531.769000", "151531.772000", "151531.775000", "151531.778000", "151531.781000", "151611.669000", "151611.684000", "151611.687000", "151611.690000", "151611.693000", "151611.696000", "151611.699000", "151611.702000", "151611.705000", "151611.708000", "151611.711000", "151611.714000", "151611.717000", "151611.720000", "151611.733000", "151611.736000", "151611.739000", "151611.742000", "151611.745000", "151611.748000", "151611.751000", "151611.754000", "151611.757000", "151611.760000", "151611.763000", "151611.767000", "151611.773000", "151611.778000", "151611.781000", "151611.788000", "151611.791000", "151651.670000", "151651.673000", "151651.676000", "151651.679000", "151651.682000", "151651.685000", "151651.688000", "151651.691000", "151651.694000", "151651.697000", "151651.700000", "151651.703000", "151651.706000", "151651.709000", "151651.712000", "151651.715000", "151651.718000", "151651.721000", "151651.724000", "151651.727000", "151651.731000", "151651.734000", "151651.737000", "151651.739000", "151651.743000", "151651.745000", "151651.748000", "151651.751000", "151651.754000", "151651.757000", "151651.760000", "151651.763000", "151731.669000", "151731.672000", "151731.675000", "151731.678000", "151731.682000", "151731.685000", "151731.688000", "151731.691000", "151731.694000", "151731.697000", "151731.700000", "151731.703000", "151731.706000", "151731.709000", "151731.712000", "151731.715000", "151731.718000", "151731.721000", "151731.724000", "151731.727000", "151731.730000", "151731.733000", "151731.736000", "151731.740000", "151731.743000", "151731.746000", "151731.757000", "151731.760000", "151731.763000", "151731.766000", "151731.769000", "151811.669000", "151811.672000", "151811.675000", "151811.678000", "151811.681000", "151811.685000", "151811.687000", "151811.690000", "151811.693000", "151811.697000", "151811.700000", "151811.703000", "151811.706000", "151811.709000", "151811.712000", "151811.715000", "151811.718000", "151811.721000", "151811.724000", "151811.727000", "151811.730000", "151811.733000", "151811.736000", "151811.739000", "151811.742000", "151811.745000", "151811.748000", "151811.751000", "151811.754000", "151811.757000", "151811.760000", "151851.670000", "151851.673000", "151851.676000", "151851.679000", "151851.682000", "151851.685000", "151851.688000", "151851.691000", "151851.694000", "151851.697000", "151851.700000", "151851.703000", "151851.706000", "151851.709000", "151851.712000", "151851.715000", "151851.719000", "151851.722000", "151851.725000", "151851.728000", "151851.731000", "151851.734000", "151851.737000", "151851.750000", "151851.754000", "151851.757000", "151851.759000", "151851.762000", "151851.766000", "151851.769000", "151851.772000", "151931.669000", "151931.672000", "151931.675000", "151931.678000", "151931.681000", "151931.684000", "151931.687000", "151931.690000", "151931.693000", "151931.696000", "151931.699000", "151931.702000", "151931.705000", "151931.708000", "151931.711000", "151931.714000", "151931.717000", "151931.721000", "151931.723000", "151931.726000", "151931.729000", "151931.732000", "151931.735000", "151931.738000", "151931.741000", "151931.744000", "151931.747000", "151931.750000", "151931.753000", "151931.756000", "151931.759000", "151931.762000", "152011.669000", "152011.672000", "152011.675000", "152011.679000", "152011.682000", "152011.695000", "152011.698000", "152011.701000", "152011.704000", "152011.707000", "152011.709000", "152011.713000", "152011.715000", "152011.718000", "152011.721000", "152011.725000", "152011.728000", "152011.731000", "152011.734000", "152011.737000", "152011.740000", "152011.743000", "152011.745000", "152011.749000", "152011.752000", "152011.755000", "152011.758000", "152011.761000", "152011.764000", "152011.767000", "152011.788000", "152051.669000", "152051.672000", "152051.675000", "152051.678000", "152051.681000", "152051.684000", "152051.687000", "152051.690000", "152051.693000", "152051.696000", "152051.699000", "152051.702000", "152051.705000", "152051.708000", "152051.711000", "152051.714000", "152051.717000", "152051.720000", "152051.723000", "152051.726000", "152051.729000", "152051.732000", "152051.735000", "152051.738000", "152051.741000", "152051.744000", "152051.747000", "152051.750000", "152051.753000", "152051.756000", "152051.759000", "152131.669000", "152131.672000", "152131.675000", "152131.678000", "152131.681000", "152131.685000", "152131.688000", "152131.691000", "152131.694000", "152131.697000", "152131.700000", "152131.703000", "152131.706000", "152131.709000", "152131.712000", "152131.715000", "152131.718000", "152131.721000", "152131.724000", "152131.727000", "152131.730000", "152131.733000", "152131.736000", "152131.739000", "152131.743000", "152131.748000", "152131.753000", "152131.756000", "152131.760000", "152131.763000", "152131.766000", "152211.669000", "152211.672000", "152211.675000", "152211.679000", "152211.681000", "152211.684000", "152211.688000", "152211.691000", "152211.694000", "152211.697000", "152211.700000", "152211.703000", "152211.706000", "152211.708000", "152211.712000", "152211.715000", "152211.718000", "152211.721000", "152211.724000", "152211.727000", "152211.730000", "152211.733000", "152211.736000", "152211.739000", "152211.742000", "152211.745000", "152211.748000", "152211.751000", "152211.754000", "152211.757000", "152211.760000", "152211.763000", "152240.877000", "152240.881000", "152240.884000", "152240.888000", "152240.892000", "152240.896000", "152240.900000", "152240.903000", "152240.907000", "152240.910000", "152240.914000", "152240.918000", "152240.921000", "152240.925000", "152240.928000", "152240.931000", "152240.934000", "152240.937000", "152240.941000", "152240.944000", "152240.948000", "152240.951000", "152240.954000"],
      "InstanceNumber": [1, 2, 3, 4, 5, 6, 7, 8, 9, 10, 11, 12, 13, 14, 15, 16, 17, 18, 19, 20, 21, 22, 23, 24, 25, 26, 27, 28, 29, 30, 31, 32, 33, 34, 35, 36, 37, 38, 39, 40, 41, 42, 43, 44, 45, 46, 47, 48, 49, 50, 51, 52, 53, 54, 55, 56, 57, 58, 59, 60, 61, 62, 63, 64, 65, 66, 67, 68, 69, 70, 71, 72, 73, 74, 75, 76, 77, 78, 79, 80, 81, 82, 83, 84, 85, 86, 87, 88, 89, 90, 91, 92, 93, 94, 95, 96, 97, 98, 99, 100, 101, 102, 103, 104, 105, 106, 107, 108, 109, 110, 111, 112, 113, 114, 115, 116, 117, 118, 119, 120, 121, 122, 123, 124, 125, 126, 127, 128, 129, 130, 131, 132, 133, 134, 135, 136, 137, 138, 139, 140, 141, 142, 143, 144, 145, 146, 147, 148, 149, 150, 151, 152, 153, 154, 155, 156, 157, 158, 159, 160, 161, 162, 163, 164, 165, 166, 167, 168, 169, 170, 171, 172, 173, 174, 175, 176, 177, 178, 179, 180, 181, 182, 183, 184, 185, 186, 187, 188, 189, 190, 191, 192, 193, 194, 195, 196, 197, 198, 199, 200, 201, 202, 203, 204, 205, 206, 207, 208, 209, 210, 211, 212, 213, 214, 215, 216, 217, 218, 219, 220, 221, 222, 223, 224, 225, 226, 227, 228, 229, 230, 231, 232, 233, 234, 235, 236, 237, 238, 239, 240, 241, 242, 243, 244, 245, 246, 247, 248, 249, 250, 251, 252, 253, 254, 255, 256, 257, 258, 259, 260, 261, 262, 263, 264, 265, 266, 267, 268, 269, 270, 271, 272, 273, 274, 275, 276, 277, 278, 279, 280, 281, 282, 283, 284, 285, 286, 287, 288, 289, 290, 291, 292, 293, 294, 295, 296, 297, 298, 299, 300, 301, 302, 303, 304, 305, 306, 307, 308, 309, 310, 311, 312, 313, 314, 315, 316, 317, 318, 319, 320, 321, 322, 323, 324, 325, 326, 327, 328, 329, 330, 331, 332, 333, 334, 335, 336, 337, 338, 339, 340, 341, 342, 343, 344, 345, 346, 347, 348, 349, 350, 351, 352, 353, 354, 355, 356, 357, 358, 359, 360, 361, 362, 363, 364, 365, 366, 367, 368, 369, 370, 371, 372, 373],
