{
  "AcquisitionMatrixPE": 108,
  "AcquisitionNumber": 1,
  "AcquisitionTime": "15:39:59.200000",
  "BandwidthPerPixelPhaseEncode": 15.964,
  "BaseResolution": 108,
  "BodyPartExamined": "BRAIN",
  "ConsistencyInfo": "N4_VE11C_LATEST_20160120",
  "ConversionSoftware": "dcm2niix",
  "ConversionSoftwareVersion": "v1.0.20180622 GCC6.3.0",
  "DerivedVendorReportedEchoSpacing": 0.000580009,
  "DeviceSerialNumber": "66054",
  "DwellTime": 2.1e-06,
  "EchoTime": 0.031,
  "EchoTrainLength": 95,
  "EffectiveEchoSpacing": 0.000580009,
  "FlipAngle": 64,
  "ImageOrientationPatientDICOM": [0.997528, 0.0653342, -0.0258608, -0.0697539, 0.876388, -0.476528],
  "ImageType": [
    "ORIGINAL",
    "PRIMARY",
    "M",
    "ND",
    "MOSAIC"
],
  "InPlanePhaseEncodingDirectionDICOM": "COL",
  "InstitutionAddress": "Chemin_des_Mines_9_Geneve_District_CH_1211",
  "InstitutionName": "Fondation_Campus_Biotech_Geneva",
  "InstitutionalDepartmentName": "Department",
  "MRAcquisitionType": "2D",
  "MagneticFieldStrength": 3,
  "Manufacturer": "Siemens",
  "ManufacturersModelName": "Prisma",
  "Modality": "MR",
  "MultibandAccelerationFactor": 4,
  "PartialFourier": 0.875,
  "PatientPosition": "HFS",
  "PercentPhaseFOV": 100,
  "PhaseEncodingDirection": "j-",
  "PhaseEncodingSteps": 95,
  "PhaseResolution": 1,
  "PixelBandwidth": 2205,
  "ProcedureStepDescription": "J.DRM_Michael",
  "ProtocolName": "Run4_bold_s4_TR1.28",
  "PulseSequenceDetails": "%SiemensSeq%_ep2d_bold",
  "ReceiveCoilActiveElements": "HC1-7;NC1,2",
  "ReceiveCoilName": "HeadNeck_64",
  "ReconMatrixPE": 108,
  "RepetitionTime": 1.28,
  "SAR": 0.0683261,
  "ScanOptions": "PFP_FS",
  "ScanningSequence": "EP",
  "SequenceName": "_epfid2d1_108",
  "SequenceVariant": "SK",
  "SeriesDescription": "Run4_bold_s4_TR1.28",
  "SeriesNumber": 10,
  "ShimSetting": [-1274, -11686, 6452, 596, 163, -271, -11, 25],
  "SliceThickness": 2,
  "SliceTiming": [0.945, 0, 0.63, 0.0775, 0.7075, 0.1575, 0.7875, 0.235, 0.865, 0.3925, 1.0225, 0.4725, 1.1025, 0.55, 1.18, 0.315, 0.945, 0, 0.63, 0.0775, 0.7075, 0.1575, 0.7875, 0.235, 0.865, 0.3925, 1.0225, 0.4725, 1.1025, 0.55, 1.18, 0.315, 0.945, 0, 0.63, 0.0775, 0.7075, 0.1575, 0.7875, 0.235, 0.865, 0.3925, 1.0225, 0.4725, 1.1025, 0.55, 1.18, 0.315, 0.945, 0, 0.63, 0.0775, 0.7075, 0.1575, 0.7875, 0.235, 0.865, 0.3925, 1.0225, 0.4725, 1.1025, 0.55, 1.18, 0.315],
  "SoftwareVersions": "syngo_MR_E11",
  "SpacingBetweenSlices": 2,
  "StationName": "AWP66054",
  "TaskName": "main",
  "TotalReadoutTime": 0.0620609,
  "TxRefAmp": 250.242,
  "dcmmeta_affine": [
    [-1.9858201742172241, -0.13886196911334991, 0.016938889399170876, 113.51445770263672],
    [-0.13006345927715302, 1.74466073513031, -0.9543081521987915, -57.41999435424805],
    [-0.051482249051332474, 0.9486438035964966, 1.7575576305389404, -93.56219482421875],
    [0.0, 0.0, 0.0, 1.0]
],
  "dcmmeta_reorient_transform": [
    [0.0, -1.0, 0.0, 107.0],
    [1.0, 0.0, 0.0, 0.0],
    [0.0, 0.0, 1.0, 0.0],
    [0.0, 0.0, 0.0, 1.0]
],
  "dcmmeta_shape": [108, 108, 64, 373],
  "dcmmeta_slice_dim": 2,
  "dcmmeta_version": 0.6,
  "global": {
    "const": {
      "AccessionNumber": "",
      "AcquisitionMatrix": [108, 0, 0, 108],
      "AngioFlag": "N",
      "BitsAllocated": 16,
      "BitsStored": 12,
      "BodyPartExamined": "BRAIN",
      "Columns": 864,
      "EchoNumbers": 1,
      "EchoTime": 31.0,
      "EchoTrainLength": 95,
      "FlipAngle": 64.0,
      "HighBit": 11,
      "ImageOrientationPatient": [0.99752827477983, 0.06533419797487, -0.0258608505229, -0.0697539211808, 0.87638771632237, -0.4765280276743],
      "ImagePositionPatient": [-796.80643909926, -837.9044602898, 385.99032548377],
      "ImageType": [
        "ORIGINAL",
        "PRIMARY",
        "M",
        "ND",
        "MOSAIC"
],
      "ImagedNucleus": "1H",
      "ImagingFrequency": 123.257414,
      "InPlanePhaseEncodingDirection": "COL",
      "MRAcquisitionType": "2D",
      "MagneticFieldStrength": 3.0,
      "Manufacturer": "SIEMENS",
      "ManufacturerModelName": "Prisma",
      "Modality": "MR",
      "NumberOfAverages": 1.0,
      "NumberOfPhaseEncodingSteps": 95,
      "PercentPhaseFieldOfView": 100.0,
      "PercentSampling": 100.0,
      "PerformedProcedureStepStartTime": "145221.335000",
      "PhotometricInterpretation": "MONOCHROME2",
      "PixelBandwidth": 2205.0,
      "PixelRepresentation": 0,
      "PixelSpacing": [1.990740776062, 1.990740776062],
      "PositionReferenceIndicator": "",
      "ProtocolName": "Run4_bold_s4_TR1.28",
      "RepetitionTime": 1280.0,
      "Rows": 864,
      "SAR": 0.06832609385757,
      "SamplesPerPixel": 1,
      "ScanOptions": [
        "PFP",
        "FS"
],
      "ScanningSequence": "EP",
      "SequenceName": "*epfid2d1_108",
      "SequenceVariant": "SK",
      "SeriesDescription": "Run4_bold_s4_TR1.28",
      "SeriesNumber": 10,
      "SeriesTime": "154031.670000",
      "SliceLocation": -53.860889572088,
      "SliceThickness": 2.0,
      "SmallestImagePixelValue": 0,
      "SoftwareVersions": "syngo MR E11",
      "SpacingBetweenSlices": 2.0000000033219,
      "SpecificCharacterSet": "ISO_IR 100",
      "StudyID": "1",
      "StudyTime": "145221.266000",
      "TransmitCoilName": "Body",
      "VariableFlipAngleFlag": "N",
      "WindowCenterWidthExplanation": "Algo1",
      "dBdt": 0.0},
    "slices": {}
  },
  "time": {
    "samples": {
      "AcquisitionNumber": [1, 2, 3, 4, 5, 6, 7, 8, 9, 10, 11, 12, 13, 14, 15, 16, 17, 18, 19, 20, 21, 22, 23, 24, 25, 26, 27, 28, 29, 30, 31, 32, 33, 34, 35, 36, 37, 38, 39, 40, 41, 42, 43, 44, 45, 46, 47, 48, 49, 50, 51, 52, 53, 54, 55, 56, 57, 58, 59, 60, 61, 62, 63, 64, 65, 66, 67, 68, 69, 70, 71, 72, 73, 74, 75, 76, 77, 78, 79, 80, 81, 82, 83, 84, 85, 86, 87, 88, 89, 90, 91, 92, 93, 94, 95, 96, 97, 98, 99, 100, 101, 102, 103, 104, 105, 106, 107, 108, 109, 110, 111, 112, 113, 114, 115, 116, 117, 118, 119, 120, 121, 122, 123, 124, 125, 126, 127, 128, 129, 130, 131, 132, 133, 134, 135, 136, 137, 138, 139, 140, 141, 142, 143, 144, 145, 146, 147, 148, 149, 150, 151, 152, 153, 154, 155, 156, 157, 158, 159, 160, 161, 162, 163, 164, 165, 166, 167, 168, 169, 170, 171, 172, 173, 174, 175, 176, 177, 178, 179, 180, 181, 182, 183, 184, 185, 186, 187, 188, 189, 190, 191, 192, 193, 194, 195, 196, 197, 198, 199, 200, 201, 202, 203, 204, 205, 206, 207, 208, 209, 210, 211, 212, 213, 214, 215, 216, 217, 218, 219, 220, 221, 222, 223, 224, 225, 226, 227, 228, 229, 230, 231, 232, 233, 234, 235, 236, 237, 238, 239, 240, 241, 242, 243, 244, 245, 246, 247, 248, 249, 250, 251, 252, 253, 254, 255, 256, 257, 258, 259, 260, 261, 262, 263, 264, 265, 266, 267, 268, 269, 270, 271, 272, 273, 274, 275, 276, 277, 278, 279, 280, 281, 282, 283, 284, 285, 286, 287, 288, 289, 290, 291, 292, 293, 294, 295, 296, 297, 298, 299, 300, 301, 302, 303, 304, 305, 306, 307, 308, 309, 310, 311, 312, 313, 314, 315, 316, 317, 318, 319, 320, 321, 322, 323, 324, 325, 326, 327, 328, 329, 330, 331, 332, 333, 334, 335, 336, 337, 338, 339, 340, 341, 342, 343, 344, 345, 346, 347, 348, 349, 350, 351, 352, 353, 354, 355, 356, 357, 358, 359, 360, 361, 362, 363, 364, 365, 366, 367, 368, 369, 370, 371, 372, 373],
      "AcquisitionTime": ["153959.200000", "154000.480000", "154001.760000", "154003.040000", "154004.320000", "154005.600000", "154006.880000", "154008.160000", "154009.440000", "154010.720000", "154012.000000", "154013.280000", "154014.560000", "154015.840000", "154017.120000", "154018.400000", "154019.680000", "154020.960000", "154022.240000", "154023.520000", "154024.800000", "154026.080000", "154027.360000", "154028.640000", "154029.920000", "154031.200000", "154032.480000", "154033.760000", "154035.040000", "154036.320000", "154037.600000", "154038.880000", "154040.160000", "154041.440000", "154042.720000", "154044.000000", "154045.280000", "154046.560000", "154047.840000", "154049.120000", "154050.400000", "154051.680000", "154052.960000", "154054.240000", "154055.520000", "154056.800000", "154058.080000", "154059.360000", "154100.640000", "154101.920000", "154103.200000", "154104.480000", "154105.760000", "154107.040000", "154108.320000", "154109.600000", "154110.880000", "154112.160000", "154113.440000", "154114.720000", "154116.000000", "154117.280000", "154118.560000", "154119.840000", "154121.120000", "154122.400000", "154123.680000", "154124.960000", "154126.240000", "154127.520000", "154128.800000", "154130.080000", "154131.360000", "154132.640000", "154133.920000", "154135.200000", "154136.480000", "154137.760000", "154139.040000", "154140.320000", "154141.600000", "154142.880000", "154144.160000", "154145.440000", "154146.720000", "154148.000000", "154149.280000", "154150.560000", "154151.840000", "154153.120000", "154154.400000", "154155.680000", "154156.960000", "154158.240000", "154159.520000", "154200.800000", "154202.080000", "154203.360000", "154204.640000", "154205.920000", "154207.200000", "154208.480000", "154209.760000", "154211.040000", "154212.320000", "154213.600000", "154214.880000", "154216.160000", "154217.440000", "154218.720000", "154220.000000", "154221.280000", "154222.560000", "154223.840000", "154225.120000", "154226.400000", "154227.680000", "154228.960000", "154230.240000", "154231.520000", "154232.800000", "154234.080000", "154235.360000", "154236.640000", "154237.920000", "154239.200000", "154240.480000", "154241.760000", "154243.040000", "154244.320000", "154245.600000", "154246.880000", "154248.160000", "154249.440000", "154250.720000", "154252.000000", "154253.280000", "154254.560000", "154255.840000", "154257.120000", "154258.400000", "154259.680000", "154300.960000", "154302.240000", "154303.520000", "154304.800000", "154306.080000", "154307.360000", "154308.640000", "154309.920000", "154311.200000", "154312.480000", "154313.760000", "154315.040000", "154316.320000", "154317.600000", "154318.880000", "154320.160000", "154321.440000", "154322.720000", "154324.000000", "154325.280000", "154326.560000", "154327.840000", "154329.120000", "154330.400000", "154331.680000", "154332.960000", "154334.240000", "154335.520000", "154336.800000", "154338.080000", "154339.360000", "154340.640000", "154341.920000", "154343.200000", "154344.480000", "154345.760000", "154347.040000", "154348.320000", "154349.600000", "154350.880000", "154352.160000", "154353.440000", "154354.720000", "154356.000000", "154357.280000", "154358.560000", "154359.840000", "154401.120000", "154402.400000", "154403.680000", "154404.960000", "154406.240000", "154407.520000", "154408.800000", "154410.080000", "154411.360000", "154412.640000", "154413.920000", "154415.200000", "154416.480000", "154417.760000", "154419.040000", "154420.320000", "154421.600000", "154422.880000", "154424.160000", "154425.440000", "154426.720000", "154428.000000", "154429.280000", "154430.560000", "154431.840000", "154433.120000", "154434.400000", "154435.680000", "154436.960000", "154438.240000", "154439.520000", "154440.800000", "154442.080000", "154443.360000", "154444.640000", "154445.920000", "154447.200000", "154448.480000", "154449.760000", "154451.040000", "154452.320000", "154453.600000", "154454.880000", "154456.160000", "154457.440000", "154458.720000", "154500.000000", "154501.280000", "154502.560000", "154503.840000", "154505.120000", "154506.400000", "154507.680000", "154508.960000", "154510.240000", "154511.520000", "154512.800000", "154514.080000", "154515.360000", "154516.640000", "154517.920000", "154519.200000", "154520.480000", "154521.760000", "154523.040000", "154524.320000", "154525.600000", "154526.880000", "154528.160000", "154529.440000", "154530.720000", "154532.000000", "154533.280000", "154534.560000", "154535.840000", "154537.120000", "154538.400000", "154539.680000", "154540.960000", "154542.240000", "154543.520000", "154544.800000", "154546.080000", "154547.360000", "154548.640000", "154549.920000", "154551.200000", "154552.480000", "154553.760000", "154555.040000", "154556.320000", "154557.600000", "154558.880000", "154600.160000", "154601.440000", "154602.720000", "154604.000000", "154605.280000", "154606.560000", "154607.840000", "154609.120000", "154610.400000", "154611.680000", "154612.960000", "154614.240000", "154615.520000", "154616.800000", "154618.080000", "154619.360000", "154620.640000", "154621.920000", "154623.200000", "154624.480000", "154625.760000", "154627.040000", "154628.320000", "154629.600000", "154630.880000", "154632.160000", "154633.440000", "154634.720000", "154636.000000", "154637.280000", "154638.560000", "154639.840000", "154641.120000", "154642.400000", "154643.680000", "154644.960000", "154646.240000", "154647.520000", "154648.800000", "154650.080000", "154651.360000", "154652.640000", "154653.920000", "154655.200000", "154656.480000", "154657.760000", "154659.040000", "154700.320000", "154701.600000", "154702.880000", "154704.160000", "154705.440000", "154706.720000", "154708.000000", "154709.280000", "154710.560000", "154711.840000", "154713.120000", "154714.400000", "154715.680000", "154716.960000", "154718.240000", "154719.520000", "154720.800000", "154722.080000", "154723.360000", "154724.640000", "154725.920000", "154727.200000", "154728.480000", "154729.760000", "154731.040000", "154732.320000", "154733.600000", "154734.880000", "154736.160000", "154737.440000", "154738.720000", "154740.000000", "154741.280000", "154742.560000", "154743.840000", "154745.120000", "154746.400000", "154747.680000", "154748.960000", "154750.240000", "154751.520000", "154752.800000", "154754.080000", "154755.360000"],
      "ContentTime": ["154031.674000", "154031.677000", "154031.680000", "154031.684000", "154031.687000", "154031.689000", "154031.692000", "154031.695000", "154031.698000", "154031.701000", "154031.704000", "154031.707000", "154031.710000", "154031.721000", "154031.730000", "154031.733000", "154031.736000", "154031.739000", "154031.742000", "154031.745000", "154031.748000", "154031.751000", "154031.754000", "154031.757000", "154031.760000", "154111.669000", "154111.672000", "154111.675000", "154111.678000", "154111.681000", "154111.684000", "154111.687000", "154111.690000", "154111.693000", "154111.696000", "154111.699000", "154111.702000", "154111.705000", "154111.708000", "154111.711000", "154111.714000", "154111.717000", "154111.720000", "154111.723000", "154111.726000", "154111.729000", "154111.732000", "154111.735000", "154111.738000", "154111.741000", "154111.744000", "154111.747000", "154111.750000", "154111.753000", "154111.756000", "154111.759000", "154151.670000", "154151.675000", "154151.680000", "154151.684000", "154151.687000", "154151.690000", "154151.693000", "154151.696000", "154151.699000", "154151.702000", "154151.705000", "154151.708000", "154151.711000", "154151.714000", "154151.717000", "154151.720000", "154151.723000", "154151.726000", "154151.729000", "154151.732000", "154151.735000", "154151.738000", "154151.741000", "154151.744000", "154151.747000", "154151.750000", "154151.753000", "154151.756000", "154151.759000", "154151.762000", "154151.770000", "154231.669000", "154231.672000", "154231.675000", "154231.678000", "154231.681000", "154231.684000", "154231.687000", "154231.690000", "154231.693000", "154231.696000", "154231.699000", "154231.705000", "154231.708000", "154231.711000", "154231.714000", "154231.717000", "154231.720000", "154231.723000", "154231.731000", "154231.734000", "154231.737000", "154231.740000", "154231.743000", "154231.746000", "154231.749000", "154231.752000", "154231.755000", "154231.758000", "154231.761000", "154231.764000", "154231.767000", "154231.770000", "154311.669000", "154311.672000", "154311.675000", "154311.678000", "154311.681000", "154311.684000", "154311.687000", "154311.690000", "154311.693000", "154311.696000", "154311.699000", "154311.702000", "154311.705000", "154311.708000", "154311.711000", "154311.714000", "154311.717000", "154311.720000", "154311.723000", "154311.726000", "154311.729000", "154311.748000", "154311.751000", "154311.754000", "154311.757000", "154311.760000", "154311.763000", "154311.766000", "154311.769000", "154311.772000", "154311.775000", "154351.669000", "154351.672000", "154351.675000", "154351.678000", "154351.681000", "154351.684000", "154351.687000", "154351.690000", "154351.693000", "154351.696000", "154351.699000", "154351.702000", "154351.705000", "154351.708000", "154351.711000", "154351.714000", "154351.717000", "154351.720000", "154351.723000", "154351.726000", "154351.729000", "154351.732000", "154351.735000", "154351.738000", "154351.741000", "154351.744000", "154351.747000", "154351.750000", "154351.753000", "154351.756000", "154351.759000", "154431.670000", "154431.673000", "154431.676000", "154431.679000", "154431.682000", "154431.685000", "154431.688000", "154431.691000", "154431.694000", "154431.699000", "154431.705000", "154431.709000", "154431.712000", "154431.715000", "154431.718000", "154431.721000", "154431.724000", "154431.727000", "154431.730000", "154431.733000", "154431.736000", "154431.739000", "154431.742000", "154431.745000", "154431.748000", "154431.751000", "154431.754000", "154431.757000", "154431.760000", "154431.763000", "154431.766000", "154451.669000", "154451.672000", "154451.675000", "154451.678000", "154451.681000", "154451.684000", "154451.687000", "154451.690000", "154451.693000", "154451.696000", "154451.699000", "154451.702000", "154451.715000", "154451.718000", "154451.721000", "154451.724000", "154531.669000", "154531.672000", "154531.675000", "154531.678000", "154531.681000", "154531.684000", "154531.687000", "154531.690000", "154531.693000", "154531.696000", "154531.699000", "154531.702000", "154531.706000", "154531.708000", "154531.711000", "154531.714000", "154531.718000", "154531.721000", "154531.723000", "154531.726000", "154531.730000", "154531.733000", "154531.736000", "154531.739000", "154531.742000", "154531.745000", "154531.748000", "154531.751000", "154531.754000", "154531.757000", "154531.760000", "154611.669000", "154611.672000", "154611.675000", "154611.678000", "154611.681000", "154611.684000", "154611.687000", "154611.690000", "154611.693000", "154611.696000", "154611.699000", "154611.702000", "154611.705000", "154611.708000", "154611.711000", "154611.714000", "154611.717000", "154611.720000", "154611.723000", "154611.726000", "154611.729000", "154611.732000", "154611.735000", "154611.738000", "154611.741000", "154611.744000", "154611.747000", "154611.750000", "154611.753000", "154611.756000", "154611.759000", "154611.762000", "154651.670000", "154651.673000", "154651.676000", "154651.679000", "154651.682000", "154651.685000", "154651.688000", "154651.691000", "154651.694000", "154651.697000", "154651.700000", "154651.703000", "154651.706000", "154651.709000", "154651.712000", "154651.716000", "154651.719000", "154651.722000", "154651.724000", "154651.728000", "154651.731000", "154651.734000", "154651.737000", "154651.740000", "154651.743000", "154651.746000", "154651.749000", "154651.752000", "154651.767000", "154651.794000", "154651.797000", "154731.669000", "154731.672000", "154731.675000", "154731.678000", "154731.681000", "154731.684000", "154731.695000", "154731.698000", "154731.701000", "154731.704000", "154731.708000", "154731.711000", "154731.714000", "154731.717000", "154731.720000", "154731.723000", "154731.726000", "154731.729000", "154731.732000", "154731.735000", "154731.738000", "154731.741000", "154731.744000", "154731.747000", "154731.750000", "154731.753000", "154731.756000", "154731.759000", "154731.762000", "154731.765000", "154731.768000", "154756.490000", "154756.497000", "154756.502000", "154756.506000", "154756.512000", "154756.516000", "154756.520000", "154756.523000", "154756.526000", "154756.530000", "154756.534000", "154756.538000", "154756.542000", "154756.547000", "154756.550000", "154756.554000", "154756.558000", "154756.561000", "154756.564000", "154756.567000"],
      "InstanceCreationTime": ["154031.674000", "154031.677000", "154031.680000", "154031.684000", "154031.687000", "154031.689000", "154031.692000", "154031.695000", "154031.698000", "154031.701000", "154031.704000", "154031.707000", "154031.710000", "154031.721000", "154031.730000", "154031.733000", "154031.736000", "154031.739000", "154031.742000", "154031.745000", "154031.748000", "154031.751000", "154031.754000", "154031.757000", "154031.760000", "154111.669000", "154111.672000", "154111.675000", "154111.678000", "154111.681000", "154111.684000", "154111.687000", "154111.690000", "154111.693000", "154111.696000", "154111.699000", "154111.702000", "154111.705000", "154111.708000", "154111.711000", "154111.714000", "154111.717000", "154111.720000", "154111.723000", "154111.726000", "154111.729000", "154111.732000", "154111.735000", "154111.738000", "154111.741000", "154111.744000", "154111.747000", "154111.750000", "154111.753000", "154111.756000", "154111.759000", "154151.670000", "154151.675000", "154151.680000", "154151.684000", "154151.687000", "154151.690000", "154151.693000", "154151.696000", "154151.699000", "154151.702000", "154151.705000", "154151.708000", "154151.711000", "154151.714000", "154151.717000", "154151.720000", "154151.723000", "154151.726000", "154151.729000", "154151.732000", "154151.735000", "154151.738000", "154151.741000", "154151.744000", "154151.747000", "154151.750000", "154151.753000", "154151.756000", "154151.759000", "154151.762000", "154151.770000", "154231.669000", "154231.672000", "154231.675000", "154231.678000", "154231.681000", "154231.684000", "154231.687000", "154231.690000", "154231.693000", "154231.696000", "154231.699000", "154231.705000", "154231.708000", "154231.711000", "154231.714000", "154231.717000", "154231.720000", "154231.723000", "154231.731000", "154231.734000", "154231.737000", "154231.740000", "154231.743000", "154231.746000", "154231.749000", "154231.752000", "154231.755000", "154231.758000", "154231.761000", "154231.764000", "154231.767000", "154231.770000", "154311.669000", "154311.672000", "154311.675000", "154311.678000", "154311.681000", "154311.684000", "154311.687000", "154311.690000", "154311.693000", "154311.696000", "154311.699000", "154311.702000", "154311.705000", "154311.708000", "154311.711000", "154311.714000", "154311.717000", "154311.720000", "154311.723000", "154311.726000", "154311.729000", "154311.748000", "154311.751000", "154311.754000", "154311.757000", "154311.760000", "154311.763000", "154311.766000", "154311.769000", "154311.772000", "154311.775000", "154351.669000", "154351.672000", "154351.675000", "154351.678000", "154351.681000", "154351.684000", "154351.687000", "154351.690000", "154351.693000", "154351.696000", "154351.699000", "154351.702000", "154351.705000", "154351.708000", "154351.711000", "154351.714000", "154351.717000", "154351.720000", "154351.723000", "154351.726000", "154351.729000", "154351.732000", "154351.735000", "154351.738000", "154351.741000", "154351.744000", "154351.747000", "154351.750000", "154351.753000", "154351.756000", "154351.759000", "154431.670000", "154431.673000", "154431.676000", "154431.679000", "154431.682000", "154431.685000", "154431.688000", "154431.691000", "154431.694000", "154431.699000", "154431.705000", "154431.709000", "154431.712000", "154431.715000", "154431.718000", "154431.721000", "154431.724000", "154431.727000", "154431.730000", "154431.733000", "154431.736000", "154431.739000", "154431.742000", "154431.745000", "154431.748000", "154431.751000", "154431.754000", "154431.757000", "154431.760000", "154431.763000", "154431.766000", "154451.669000", "154451.672000", "154451.675000", "154451.678000", "154451.681000", "154451.684000", "154451.687000", "154451.690000", "154451.693000", "154451.696000", "154451.699000", "154451.702000", "154451.715000", "154451.718000", "154451.721000", "154451.724000", "154531.669000", "154531.672000", "154531.675000", "154531.678000", "154531.681000", "154531.684000", "154531.687000", "154531.690000", "154531.693000", "154531.696000", "154531.699000", "154531.702000", "154531.706000", "154531.708000", "154531.711000", "154531.714000", "154531.718000", "154531.721000", "154531.723000", "154531.726000", "154531.730000", "154531.733000", "154531.736000", "154531.739000", "154531.742000", "154531.745000", "154531.748000", "154531.751000", "154531.754000", "154531.757000", "154531.760000", "154611.669000", "154611.672000", "154611.675000", "154611.678000", "154611.681000", "154611.684000", "154611.687000", "154611.690000", "154611.693000", "154611.696000", "154611.699000", "154611.702000", "154611.705000", "154611.708000", "154611.711000", "154611.714000", "154611.717000", "154611.720000", "154611.723000", "154611.726000", "154611.729000", "154611.732000", "154611.735000", "154611.738000", "154611.741000", "154611.744000", "154611.747000", "154611.750000", "154611.753000", "154611.756000", "154611.759000", "154611.762000", "154651.670000", "154651.673000", "154651.676000", "154651.679000", "154651.682000", "154651.685000", "154651.688000", "154651.691000", "154651.694000", "154651.697000", "154651.700000", "154651.703000", "154651.706000", "154651.709000", "154651.712000", "154651.716000", "154651.719000", "154651.722000", "154651.724000", "154651.728000", "154651.731000", "154651.734000", "154651.737000", "154651.740000", "154651.743000", "154651.746000", "154651.749000", "154651.752000", "154651.767000", "154651.794000", "154651.797000", "154731.669000", "154731.672000", "154731.675000", "154731.678000", "154731.681000", "154731.684000", "154731.695000", "154731.698000", "154731.701000", "154731.704000", "154731.708000", "154731.711000", "154731.714000", "154731.717000", "154731.720000", "154731.723000", "154731.726000", "154731.729000", "154731.732000", "154731.735000", "154731.738000", "154731.741000", "154731.744000", "154731.747000", "154731.750000", "154731.753000", "154731.756000", "154731.759000", "154731.762000", "154731.765000", "154731.768000", "154756.490000", "154756.497000", "154756.502000", "154756.506000", "154756.512000", "154756.516000", "154756.520000", "154756.523000", "154756.526000", "154756.530000", "154756.534000", "154756.538000", "154756.542000", "154756.547000", "154756.550000", "154756.554000", "154756.558000", "154756.561000", "154756.564000", "154756.567000"],
      "InstanceNumber": [1, 2, 3, 4, 5, 6, 7, 8, 9, 10, 11, 12, 13, 14, 15, 16, 17, 18, 19, 20, 21, 22, 23, 24, 25, 26, 27, 28, 29, 30, 31, 32, 33, 34, 35, 36, 37, 38, 39, 40, 41, 42, 43, 44, 45, 46, 47, 48, 49, 50, 51, 52, 53, 54, 55, 56, 57, 58, 59, 60, 61, 62, 63, 64, 65, 66, 67, 68, 69, 70, 71, 72, 73, 74, 75, 76, 77, 78, 79, 80, 81, 82, 83, 84, 85, 86, 87, 88, 89, 90, 91, 92, 93, 94, 95, 96, 97, 98, 99, 100, 101, 102, 103, 104, 105, 106, 107, 108, 109, 110, 111, 112, 113, 114, 115, 116, 117, 118, 119, 120, 121, 122, 123, 124, 125, 126, 127, 128, 129, 130, 131, 132, 133, 134, 135, 136, 137, 138, 139, 140, 141, 142, 143, 144, 145, 146, 147, 148, 149, 150, 151, 152, 153, 154, 155, 156, 157, 158, 159, 160, 161, 162, 163, 164, 165, 166, 167, 168, 169, 170, 171, 172, 173, 174, 175, 176, 177, 178, 179, 180, 181, 182, 183, 184, 185, 186, 187, 188, 189, 190, 191, 192, 193, 194, 195, 196, 197, 198, 199, 200, 201, 202, 203, 204, 205, 206, 207, 208, 209, 210, 211, 212, 213, 214, 215, 216, 217, 218, 219, 220, 221, 222, 223, 224, 225, 226, 227, 228, 229, 230, 231, 232, 233, 234, 235, 236, 237, 238, 239, 240, 241, 242, 243, 244, 245, 246, 247, 248, 249, 250, 251, 252, 253, 254, 255, 256, 257, 258, 259, 260, 261, 262, 263, 264, 265, 266, 267, 268, 269, 270, 271, 272, 273, 274, 275, 276, 277, 278, 279, 280, 281, 282, 283, 284, 285, 286, 287, 288, 289, 290, 291, 292, 293, 294, 295, 296, 297, 298, 299, 300, 301, 302, 303, 304, 305, 306, 307, 308, 309, 310, 311, 312, 313, 314, 315, 316, 317, 318, 319, 320, 321, 322, 323, 324, 325, 326, 327, 328, 329, 330, 331, 332, 333, 334, 335, 336, 337, 338, 339, 340, 341, 342, 343, 344, 345, 346, 347, 348, 349, 350, 351, 352, 353, 354, 355, 356, 357, 358, 359, 360, 361, 362, 363, 364, 365, 366, 367, 368, 369, 370, 371, 372, 373],
