{
  "AcquisitionMatrixPE": 108,
  "AcquisitionNumber": 1,
  "AcquisitionTime": "11:33:24.050000",
  "BandwidthPerPixelPhaseEncode": 15.964,
  "BaseResolution": 108,
  "BodyPartExamined": "BRAIN",
  "ConsistencyInfo": "N4_VE11C_LATEST_20160120",
  "ConversionSoftware": "dcm2niix",
  "ConversionSoftwareVersion": "v1.0.20180622 GCC6.3.0",
  "DerivedVendorReportedEchoSpacing": 0.000580009,
  "DeviceSerialNumber": "66054",
  "DwellTime": 2.1e-06,
  "EchoTime": 0.031,
  "EchoTrainLength": 95,
  "EffectiveEchoSpacing": 0.000580009,
  "FlipAngle": 64,
  "ImageOrientationPatientDICOM": [0.997548, -0.0544069, 0.0440207, 0.068006, 0.902099, -0.426137],
  "ImageType": [
    "ORIGINAL",
    "PRIMARY",
    "M",
    "ND",
    "MOSAIC"
],
  "InPlanePhaseEncodingDirectionDICOM": "COL",
  "InstitutionAddress": "Chemin_des_Mines_9_Geneve_District_CH_1211",
  "InstitutionName": "Fondation_Campus_Biotech_Geneva",
  "InstitutionalDepartmentName": "Department",
  "MRAcquisitionType": "2D",
  "MagneticFieldStrength": 3,
  "Manufacturer": "Siemens",
  "ManufacturersModelName": "Prisma",
  "Modality": "MR",
  "MultibandAccelerationFactor": 4,
  "PartialFourier": 0.875,
  "PatientPosition": "HFS",
  "PercentPhaseFOV": 100,
  "PhaseEncodingDirection": "j-",
  "PhaseEncodingSteps": 95,
  "PhaseResolution": 1,
  "PixelBandwidth": 2205,
  "ProcedureStepDescription": "J.DRM_Michael",
  "ProtocolName": "Run3_bold_s4_TR1.28",
  "PulseSequenceDetails": "%SiemensSeq%_ep2d_bold",
  "ReceiveCoilActiveElements": "HC1-7;NC1,2",
  "ReceiveCoilName": "HeadNeck_64",
  "ReconMatrixPE": 108,
  "RepetitionTime": 1.28,
  "SAR": 0.0892363,
  "ScanOptions": "PFP_FS",
  "ScanningSequence": "EP",
  "SequenceName": "_epfid2d1_108",
  "SequenceVariant": "SK",
  "SeriesDescription": "Run3_bold_s4_TR1.28",
  "SeriesNumber": 7,
  "ShimSetting": [-1231, -11634, 6485, 658, 166, 79, -60, 16],
  "SliceThickness": 2,
  "SliceTiming": [0.945, 0, 0.63, 0.0775, 0.7075, 0.1575, 0.7875, 0.235, 0.865, 0.3925, 1.0225, 0.4725, 1.1025, 0.55, 1.18, 0.315, 0.945, 0, 0.63, 0.0775, 0.7075, 0.1575, 0.7875, 0.235, 0.865, 0.3925, 1.0225, 0.4725, 1.1025, 0.55, 1.18, 0.315, 0.945, 0, 0.63, 0.0775, 0.7075, 0.1575, 0.7875, 0.235, 0.865, 0.3925, 1.0225, 0.4725, 1.1025, 0.55, 1.18, 0.315, 0.945, 0, 0.63, 0.0775, 0.7075, 0.1575, 0.7875, 0.235, 0.865, 0.3925, 1.0225, 0.4725, 1.1025, 0.55, 1.18, 0.315],
  "SoftwareVersions": "syngo_MR_E11",
  "SpacingBetweenSlices": 2,
  "StationName": "AWP66054",
  "TaskName": "main",
  "TotalReadoutTime": 0.0620609,
  "TxRefAmp": 289.466,
  "dcmmeta_affine": [
    [-1.9858595132827759, 0.13538236916065216, 0.033052507787942886, 88.86563110351562],
    [0.10831005871295929, 1.7958450317382812, -0.8561716675758362, -74.09734344482422],
    [0.08763386309146881, 0.8483283519744873, 1.8071739673614502, -94.21282196044922],
    [0.0, 0.0, 0.0, 1.0]
],
  "dcmmeta_reorient_transform": [
    [0.0, -1.0, 0.0, 107.0],
    [1.0, 0.0, 0.0, 0.0],
    [0.0, 0.0, 1.0, 0.0],
    [0.0, 0.0, 0.0, 1.0]
],
  "dcmmeta_shape": [108, 108, 64, 373],
  "dcmmeta_slice_dim": 2,
  "dcmmeta_version": 0.6,
  "global": {
    "const": {
      "AccessionNumber": "",
      "AcquisitionMatrix": [108, 0, 0, 108],
      "AngioFlag": "N",
      "BitsAllocated": 16,
      "BitsStored": 12,
      "BodyPartExamined": "BRAIN",
      "Columns": 864,
      "EchoNumbers": 1,
      "EchoTime": 31.0,
      "EchoTrainLength": 95,
      "FlipAngle": 64.0,
      "HighBit": 11,
      "ImageOrientationPatient": [0.99754802554827, -0.0544069116933, 0.04402073017049, 0.06800602678957, 0.90209889904221, -0.4261370163071],
      "ImagePositionPatient": [-905.18097991493, -755.9463106382, 284.10082016618],
      "ImageType": [
        "ORIGINAL",
        "PRIMARY",
        "M",
        "ND",
        "MOSAIC"
],
      "ImagedNucleus": "1H",
      "ImagingFrequency": 123.25738,
      "InPlanePhaseEncodingDirection": "COL",
      "MRAcquisitionType": "2D",
      "MagneticFieldStrength": 3.0,
      "Manufacturer": "SIEMENS",
      "ManufacturerModelName": "Prisma",
      "Modality": "MR",
      "NumberOfAverages": 1.0,
      "NumberOfPhaseEncodingSteps": 95,
      "PercentPhaseFieldOfView": 100.0,
      "PercentSampling": 100.0,
      "PerformedProcedureStepStartTime": "111148.121000",
      "PhotometricInterpretation": "MONOCHROME2",
      "PixelBandwidth": 2205.0,
      "PixelRepresentation": 0,
      "PixelSpacing": [1.990740776062, 1.990740776062],
      "PositionReferenceIndicator": "",
      "ProtocolName": "Run3_bold_s4_TR1.28",
      "RepetitionTime": 1280.0,
      "Rows": 864,
      "SAR": 0.08923625768711,
      "SamplesPerPixel": 1,
      "ScanOptions": [
        "PFP",
        "FS"
],
      "ScanningSequence": "EP",
      "SequenceName": "*epfid2d1_108",
      "SequenceVariant": "SK",
      "SeriesDescription": "Run3_bold_s4_TR1.28",
      "SeriesNumber": 7,
      "SeriesTime": "113404.168000",
      "SliceLocation": -51.940841540392,
      "SliceThickness": 2.0,
      "SmallestImagePixelValue": 0,
      "SoftwareVersions": "syngo MR E11",
      "SpacingBetweenSlices": 2.0000000738181,
      "SpecificCharacterSet": "ISO_IR 100",
      "StudyID": "1",
      "StudyTime": "111147.949000",
      "TransmitCoilName": "Body",
      "VariableFlipAngleFlag": "N",
      "WindowCenterWidthExplanation": "Algo1",
      "dBdt": 0.0},
    "slices": {}
  },
  "time": {
    "samples": {
      "AcquisitionNumber": [1, 2, 3, 4, 5, 6, 7, 8, 9, 10, 11, 12, 13, 14, 15, 16, 17, 18, 19, 20, 21, 22, 23, 24, 25, 26, 27, 28, 29, 30, 31, 32, 33, 34, 35, 36, 37, 38, 39, 40, 41, 42, 43, 44, 45, 46, 47, 48, 49, 50, 51, 52, 53, 54, 55, 56, 57, 58, 59, 60, 61, 62, 63, 64, 65, 66, 67, 68, 69, 70, 71, 72, 73, 74, 75, 76, 77, 78, 79, 80, 81, 82, 83, 84, 85, 86, 87, 88, 89, 90, 91, 92, 93, 94, 95, 96, 97, 98, 99, 100, 101, 102, 103, 104, 105, 106, 107, 108, 109, 110, 111, 112, 113, 114, 115, 116, 117, 118, 119, 120, 121, 122, 123, 124, 125, 126, 127, 128, 129, 130, 131, 132, 133, 134, 135, 136, 137, 138, 139, 140, 141, 142, 143, 144, 145, 146, 147, 148, 149, 150, 151, 152, 153, 154, 155, 156, 157, 158, 159, 160, 161, 162, 163, 164, 165, 166, 167, 168, 169, 170, 171, 172, 173, 174, 175, 176, 177, 178, 179, 180, 181, 182, 183, 184, 185, 186, 187, 188, 189, 190, 191, 192, 193, 194, 195, 196, 197, 198, 199, 200, 201, 202, 203, 204, 205, 206, 207, 208, 209, 210, 211, 212, 213, 214, 215, 216, 217, 218, 219, 220, 221, 222, 223, 224, 225, 226, 227, 228, 229, 230, 231, 232, 233, 234, 235, 236, 237, 238, 239, 240, 241, 242, 243, 244, 245, 246, 247, 248, 249, 250, 251, 252, 253, 254, 255, 256, 257, 258, 259, 260, 261, 262, 263, 264, 265, 266, 267, 268, 269, 270, 271, 272, 273, 274, 275, 276, 277, 278, 279, 280, 281, 282, 283, 284, 285, 286, 287, 288, 289, 290, 291, 292, 293, 294, 295, 296, 297, 298, 299, 300, 301, 302, 303, 304, 305, 306, 307, 308, 309, 310, 311, 312, 313, 314, 315, 316, 317, 318, 319, 320, 321, 322, 323, 324, 325, 326, 327, 328, 329, 330, 331, 332, 333, 334, 335, 336, 337, 338, 339, 340, 341, 342, 343, 344, 345, 346, 347, 348, 349, 350, 351, 352, 353, 354, 355, 356, 357, 358, 359, 360, 361, 362, 363, 364, 365, 366, 367, 368, 369, 370, 371, 372, 373],
      "AcquisitionTime": ["113324.050000", "113325.330000", "113326.610000", "113327.890000", "113329.170000", "113330.450000", "113331.730000", "113333.010000", "113334.290000", "113335.570000", "113336.850000", "113338.130000", "113339.410000", "113340.690000", "113341.970000", "113343.250000", "113344.530000", "113345.810000", "113347.090000", "113348.370000", "113349.650000", "113350.930000", "113352.210000", "113353.490000", "113354.770000", "113356.050000", "113357.330000", "113358.610000", "113359.890000", "113401.170000", "113402.450000", "113403.730000", "113405.010000", "113406.290000", "113407.570000", "113408.850000", "113410.130000", "113411.410000", "113412.690000", "113413.970000", "113415.250000", "113416.530000", "113417.810000", "113419.090000", "113420.370000", "113421.650000", "113422.930000", "113424.210000", "113425.490000", "113426.770000", "113428.050000", "113429.330000", "113430.610000", "113431.890000", "113433.170000", "113434.450000", "113435.730000", "113437.010000", "113438.290000", "113439.570000", "113440.850000", "113442.130000", "113443.410000", "113444.690000", "113445.970000", "113447.250000", "113448.530000", "113449.810000", "113451.090000", "113452.370000", "113453.650000", "113454.930000", "113456.210000", "113457.490000", "113458.770000", "113500.050000", "113501.330000", "113502.610000", "113503.890000", "113505.170000", "113506.450000", "113507.730000", "113509.010000", "113510.290000", "113511.570000", "113512.850000", "113514.130000", "113515.410000", "113516.690000", "113517.970000", "113519.250000", "113520.530000", "113521.810000", "113523.090000", "113524.370000", "113525.650000", "113526.930000", "113528.210000", "113529.490000", "113530.770000", "113532.050000", "113533.330000", "113534.610000", "113535.890000", "113537.170000", "113538.450000", "113539.730000", "113541.010000", "113542.290000", "113543.570000", "113544.850000", "113546.130000", "113547.410000", "113548.690000", "113549.970000", "113551.250000", "113552.530000", "113553.810000", "113555.090000", "113556.370000", "113557.650000", "113558.930000", "113600.210000", "113601.490000", "113602.770000", "113604.050000", "113605.330000", "113606.610000", "113607.890000", "113609.170000", "113610.450000", "113611.730000", "113613.010000", "113614.290000", "113615.570000", "113616.850000", "113618.130000", "113619.410000", "113620.690000", "113621.970000", "113623.250000", "113624.530000", "113625.810000", "113627.090000", "113628.370000", "113629.650000", "113630.930000", "113632.210000", "113633.490000", "113634.770000", "113636.050000", "113637.330000", "113638.610000", "113639.890000", "113641.170000", "113642.450000", "113643.730000", "113645.010000", "113646.290000", "113647.570000", "113648.850000", "113650.130000", "113651.410000", "113652.690000", "113653.970000", "113655.250000", "113656.530000", "113657.810000", "113659.090000", "113700.370000", "113701.650000", "113702.930000", "113704.210000", "113705.490000", "113706.770000", "113708.050000", "113709.330000", "113710.610000", "113711.890000", "113713.170000", "113714.450000", "113715.730000", "113717.010000", "113718.290000", "113719.570000", "113720.850000", "113722.130000", "113723.410000", "113724.690000", "113725.970000", "113727.250000", "113728.530000", "113729.810000", "113731.090000", "113732.370000", "113733.650000", "113734.930000", "113736.210000", "113737.490000", "113738.770000", "113740.050000", "113741.330000", "113742.610000", "113743.890000", "113745.170000", "113746.450000", "113747.730000", "113749.010000", "113750.290000", "113751.570000", "113752.850000", "113754.130000", "113755.410000", "113756.690000", "113757.970000", "113759.250000", "113800.530000", "113801.810000", "113803.090000", "113804.370000", "113805.650000", "113806.930000", "113808.210000", "113809.490000", "113810.770000", "113812.050000", "113813.330000", "113814.610000", "113815.890000", "113817.170000", "113818.450000", "113819.730000", "113821.010000", "113822.290000", "113823.570000", "113824.850000", "113826.130000", "113827.410000", "113828.690000", "113829.970000", "113831.250000", "113832.530000", "113833.810000", "113835.090000", "113836.370000", "113837.650000", "113838.930000", "113840.210000", "113841.490000", "113842.770000", "113844.050000", "113845.330000", "113846.610000", "113847.890000", "113849.170000", "113850.450000", "113851.730000", "113853.010000", "113854.290000", "113855.570000", "113856.850000", "113858.130000", "113859.410000", "113900.690000", "113901.970000", "113903.250000", "113904.530000", "113905.810000", "113907.090000", "113908.370000", "113909.650000", "113910.930000", "113912.210000", "113913.490000", "113914.770000", "113916.050000", "113917.330000", "113918.610000", "113919.890000", "113921.170000", "113922.450000", "113923.730000", "113925.010000", "113926.290000", "113927.570000", "113928.850000", "113930.130000", "113931.410000", "113932.690000", "113933.970000", "113935.250000", "113936.530000", "113937.810000", "113939.090000", "113940.370000", "113941.650000", "113942.930000", "113944.210000", "113945.490000", "113946.770000", "113948.050000", "113949.330000", "113950.610000", "113951.890000", "113953.170000", "113954.450000", "113955.730000", "113957.010000", "113958.290000", "113959.570000", "114000.850000", "114002.130000", "114003.410000", "114004.690000", "114005.970000", "114007.250000", "114008.530000", "114009.810000", "114011.090000", "114012.370000", "114013.650000", "114014.930000", "114016.210000", "114017.490000", "114018.770000", "114020.050000", "114021.330000", "114022.610000", "114023.890000", "114025.170000", "114026.450000", "114027.730000", "114029.010000", "114030.290000", "114031.570000", "114032.850000", "114034.130000", "114035.410000", "114036.690000", "114037.970000", "114039.250000", "114040.530000", "114041.810000", "114043.090000", "114044.370000", "114045.650000", "114046.930000", "114048.210000", "114049.490000", "114050.770000", "114052.050000", "114053.330000", "114054.610000", "114055.890000", "114057.170000", "114058.450000", "114059.730000", "114101.010000", "114102.290000", "114103.570000", "114104.850000", "114106.130000", "114107.410000", "114108.690000", "114109.970000", "114111.250000", "114112.530000", "114113.810000", "114115.090000", "114116.370000", "114117.650000", "114118.930000", "114120.210000"],
      "ContentTime": ["113404.172000", "113404.176000", "113404.179000", "113404.182000", "113404.185000", "113404.188000", "113404.191000", "113404.194000", "113404.197000", "113404.200000", "113404.203000", "113404.206000", "113404.209000", "113404.212000", "113404.215000", "113404.218000", "113404.220000", "113404.223000", "113404.226000", "113404.229000", "113404.232000", "113404.235000", "113404.238000", "113404.241000", "113404.244000", "113404.247000", "113404.250000", "113404.253000", "113404.256000", "113404.259000", "113404.262000", "113444.168000", "113444.171000", "113444.174000", "113444.177000", "113444.179000", "113444.182000", "113444.185000", "113444.188000", "113444.191000", "113444.194000", "113444.197000", "113444.199000", "113444.202000", "113444.205000", "113444.208000", "113444.211000", "113444.214000", "113444.217000", "113444.220000", "113444.223000", "113444.226000", "113444.229000", "113444.232000", "113444.235000", "113444.238000", "113444.241000", "113444.244000", "113444.247000", "113444.250000", "113444.253000", "113444.256000", "113524.168000", "113524.171000", "113524.174000", "113524.185000", "113524.188000", "113524.191000", "113524.194000", "113524.197000", "113524.200000", "113524.203000", "113524.206000", "113524.209000", "113524.212000", "113524.215000", "113524.218000", "113524.221000", "113524.224000", "113524.227000", "113524.230000", "113524.233000", "113524.235000", "113524.243000", "113524.245000", "113524.248000", "113524.251000", "113524.254000", "113524.257000", "113524.267000", "113524.269000", "113524.272000", "113524.275000", "113604.167000", "113604.170000", "113604.173000", "113604.176000", "113604.179000", "113604.187000", "113604.190000", "113604.193000", "113604.195000", "113604.198000", "113604.201000", "113604.204000", "113604.207000", "113604.210000", "113604.213000", "113604.216000", "113604.219000", "113604.222000", "113604.225000", "113604.227000", "113604.230000", "113604.233000", "113604.236000", "113604.239000", "113604.242000", "113604.245000", "113604.247000", "113604.250000", "113604.253000", "113604.256000", "113604.259000", "113644.167000", "113644.170000", "113644.173000", "113644.176000", "113644.178000", "113644.181000", "113644.193000", "113644.195000", "113644.198000", "113644.201000", "113644.204000", "113644.207000", "113644.210000", "113644.213000", "113644.215000", "113644.218000", "113644.221000", "113644.224000", "113644.227000", "113644.230000", "113644.233000", "113644.236000", "113644.238000", "113644.241000", "113644.244000", "113644.247000", "113644.250000", "113644.253000", "113644.256000", "113644.259000", "113644.262000", "113644.264000", "113704.168000", "113704.171000", "113704.174000", "113704.177000", "113704.180000", "113704.182000", "113704.185000", "113704.188000", "113704.191000", "113704.194000", "113704.197000", "113704.200000", "113704.202000", "113704.205000", "113704.208000", "113744.168000", "113744.171000", "113744.174000", "113744.176000", "113744.179000", "113744.182000", "113744.185000", "113744.188000", "113744.191000", "113744.194000", "113744.204000", "113744.206000", "113744.209000", "113744.212000", "113744.215000", "113744.218000", "113744.221000", "113744.223000", "113744.226000", "113744.229000", "113744.232000", "113744.235000", "113744.238000", "113744.241000", "113744.244000", "113744.247000", "113744.250000", "113744.253000", "113744.256000", "113744.258000", "113744.261000", "113744.264000", "113824.167000", "113824.170000", "113824.173000", "113824.176000", "113824.178000", "113824.181000", "113824.184000", "113824.187000", "113824.190000", "113824.193000", "113824.196000", "113824.198000", "113824.201000", "113824.204000", "113824.214000", "113824.217000", "113824.220000", "113824.223000", "113824.226000", "113824.228000", "113824.231000", "113824.234000", "113824.237000", "113824.240000", "113824.243000", "113824.246000", "113824.249000", "113824.252000", "113824.254000", "113824.257000", "113824.260000", "113904.167000", "113904.170000", "113904.173000", "113904.176000", "113904.178000", "113904.181000", "113904.184000", "113904.187000", "113904.190000", "113904.193000", "113904.196000", "113904.199000", "113904.201000", "113904.204000", "113904.207000", "113904.210000", "113904.213000", "113904.227000", "113904.230000", "113904.233000", "113904.235000", "113904.238000", "113904.241000", "113904.244000", "113904.247000", "113904.250000", "113904.253000", "113904.256000", "113904.258000", "113904.261000", "113904.264000", "113944.168000", "113944.171000", "113944.174000", "113944.177000", "113944.180000", "113944.183000", "113944.185000", "113944.188000", "113944.191000", "113944.194000", "113944.197000", "113944.200000", "113944.203000", "113944.205000", "113944.208000", "113944.216000", "113944.219000", "113944.222000", "113944.225000", "113944.227000", "113944.230000", "113944.233000", "113944.236000", "113944.239000", "113944.242000", "113944.244000", "113944.247000", "113944.250000", "113944.253000", "113944.256000", "113944.259000", "114024.167000", "114024.170000", "114024.173000", "114024.175000", "114024.178000", "114024.181000", "114024.184000", "114024.187000", "114024.190000", "114024.193000", "114024.196000", "114024.199000", "114024.201000", "114024.204000", "114024.207000", "114024.210000", "114024.213000", "114024.216000", "114024.219000", "114024.222000", "114024.226000", "114024.229000", "114024.231000", "114024.234000", "114024.237000", "114024.240000", "114024.243000", "114024.246000", "114024.249000", "114024.252000", "114024.254000", "114024.257000", "114104.167000", "114104.170000", "114104.173000", "114104.176000", "114104.178000", "114104.181000", "114104.184000", "114104.187000", "114104.190000", "114104.197000", "114104.200000", "114104.203000", "114104.206000", "114104.209000", "114104.212000", "114104.215000", "114104.217000", "114104.220000", "114104.229000", "114104.232000", "114104.234000", "114104.237000", "114104.240000", "114104.243000", "114104.246000", "114104.249000", "114104.252000", "114104.255000", "114104.257000", "114104.275000", "114104.278000", "114121.717000", "114121.720000", "114121.723000", "114121.726000", "114121.729000", "114121.732000", "114121.735000", "114121.738000", "114121.741000", "114121.744000", "114121.747000", "114121.750000", "114121.756000", "114121.760000"],
      "InstanceCreationTime": ["113404.172000", "113404.176000", "113404.179000", "113404.182000", "113404.185000", "113404.188000", "113404.191000", "113404.194000", "113404.197000", "113404.200000", "113404.203000", "113404.206000", "113404.209000", "113404.212000", "113404.215000", "113404.218000", "113404.220000", "113404.223000", "113404.226000", "113404.229000", "113404.232000", "113404.235000", "113404.238000", "113404.241000", "113404.244000", "113404.247000", "113404.250000", "113404.253000", "113404.256000", "113404.259000", "113404.262000", "113444.168000", "113444.171000", "113444.174000", "113444.177000", "113444.179000", "113444.182000", "113444.185000", "113444.188000", "113444.191000", "113444.194000", "113444.197000", "113444.199000", "113444.202000", "113444.205000", "113444.208000", "113444.211000", "113444.214000", "113444.217000", "113444.220000", "113444.223000", "113444.226000", "113444.229000", "113444.232000", "113444.235000", "113444.238000", "113444.241000", "113444.244000", "113444.247000", "113444.250000", "113444.253000", "113444.256000", "113524.168000", "113524.171000", "113524.174000", "113524.185000", "113524.188000", "113524.191000", "113524.194000", "113524.197000", "113524.200000", "113524.203000", "113524.206000", "113524.209000", "113524.212000", "113524.215000", "113524.218000", "113524.221000", "113524.224000", "113524.227000", "113524.230000", "113524.233000", "113524.235000", "113524.243000", "113524.245000", "113524.248000", "113524.251000", "113524.254000", "113524.257000", "113524.267000", "113524.269000", "113524.272000", "113524.275000", "113604.167000", "113604.170000", "113604.173000", "113604.176000", "113604.179000", "113604.187000", "113604.190000", "113604.193000", "113604.195000", "113604.198000", "113604.201000", "113604.204000", "113604.207000", "113604.210000", "113604.213000", "113604.216000", "113604.219000", "113604.222000", "113604.225000", "113604.227000", "113604.230000", "113604.233000", "113604.236000", "113604.239000", "113604.242000", "113604.245000", "113604.247000", "113604.250000", "113604.253000", "113604.256000", "113604.259000", "113644.167000", "113644.170000", "113644.173000", "113644.176000", "113644.178000", "113644.181000", "113644.193000", "113644.195000", "113644.198000", "113644.201000", "113644.204000", "113644.207000", "113644.210000", "113644.213000", "113644.215000", "113644.218000", "113644.221000", "113644.224000", "113644.227000", "113644.230000", "113644.233000", "113644.236000", "113644.238000", "113644.241000", "113644.244000", "113644.247000", "113644.250000", "113644.253000", "113644.256000", "113644.259000", "113644.262000", "113644.264000", "113704.168000", "113704.171000", "113704.174000", "113704.177000", "113704.180000", "113704.182000", "113704.185000", "113704.188000", "113704.191000", "113704.194000", "113704.197000", "113704.200000", "113704.202000", "113704.205000", "113704.208000", "113744.168000", "113744.171000", "113744.174000", "113744.176000", "113744.179000", "113744.182000", "113744.185000", "113744.188000", "113744.191000", "113744.194000", "113744.204000", "113744.206000", "113744.209000", "113744.212000", "113744.215000", "113744.218000", "113744.221000", "113744.223000", "113744.226000", "113744.229000", "113744.232000", "113744.235000", "113744.238000", "113744.241000", "113744.244000", "113744.247000", "113744.250000", "113744.253000", "113744.256000", "113744.258000", "113744.261000", "113744.264000", "113824.167000", "113824.170000", "113824.173000", "113824.176000", "113824.178000", "113824.181000", "113824.184000", "113824.187000", "113824.190000", "113824.193000", "113824.196000", "113824.198000", "113824.201000", "113824.204000", "113824.214000", "113824.217000", "113824.220000", "113824.223000", "113824.226000", "113824.228000", "113824.231000", "113824.234000", "113824.237000", "113824.240000", "113824.243000", "113824.246000", "113824.249000", "113824.252000", "113824.254000", "113824.257000", "113824.260000", "113904.167000", "113904.170000", "113904.173000", "113904.176000", "113904.178000", "113904.181000", "113904.184000", "113904.187000", "113904.190000", "113904.193000", "113904.196000", "113904.199000", "113904.201000", "113904.204000", "113904.207000", "113904.210000", "113904.213000", "113904.227000", "113904.230000", "113904.233000", "113904.235000", "113904.238000", "113904.241000", "113904.244000", "113904.247000", "113904.250000", "113904.253000", "113904.256000", "113904.258000", "113904.261000", "113904.264000", "113944.168000", "113944.171000", "113944.174000", "113944.177000", "113944.180000", "113944.183000", "113944.185000", "113944.188000", "113944.191000", "113944.194000", "113944.197000", "113944.200000", "113944.203000", "113944.205000", "113944.208000", "113944.216000", "113944.219000", "113944.222000", "113944.225000", "113944.227000", "113944.230000", "113944.233000", "113944.236000", "113944.239000", "113944.242000", "113944.244000", "113944.247000", "113944.250000", "113944.253000", "113944.256000", "113944.259000", "114024.167000", "114024.170000", "114024.173000", "114024.175000", "114024.178000", "114024.181000", "114024.184000", "114024.187000", "114024.190000", "114024.193000", "114024.196000", "114024.199000", "114024.201000", "114024.204000", "114024.207000", "114024.210000", "114024.213000", "114024.216000", "114024.219000", "114024.222000", "114024.226000", "114024.229000", "114024.231000", "114024.234000", "114024.237000", "114024.240000", "114024.243000", "114024.246000", "114024.249000", "114024.252000", "114024.254000", "114024.257000", "114104.167000", "114104.170000", "114104.173000", "114104.176000", "114104.178000", "114104.181000", "114104.184000", "114104.187000", "114104.190000", "114104.197000", "114104.200000", "114104.203000", "114104.206000", "114104.209000", "114104.212000", "114104.215000", "114104.217000", "114104.220000", "114104.229000", "114104.232000", "114104.234000", "114104.237000", "114104.240000", "114104.243000", "114104.246000", "114104.249000", "114104.252000", "114104.255000", "114104.257000", "114104.275000", "114104.278000", "114121.717000", "114121.720000", "114121.723000", "114121.726000", "114121.729000", "114121.732000", "114121.735000", "114121.738000", "114121.741000", "114121.744000", "114121.747000", "114121.750000", "114121.756000", "114121.760000"],
      "InstanceNumber": [1, 2, 3, 4, 5, 6, 7, 8, 9, 10, 11, 12, 13, 14, 15, 16, 17, 18, 19, 20, 21, 22, 23, 24, 25, 26, 27, 28, 29, 30, 31, 32, 33, 34, 35, 36, 37, 38, 39, 40, 41, 42, 43, 44, 45, 46, 47, 48, 49, 50, 51, 52, 53, 54, 55, 56, 57, 58, 59, 60, 61, 62, 63, 64, 65, 66, 67, 68, 69, 70, 71, 72, 73, 74, 75, 76, 77, 78, 79, 80, 81, 82, 83, 84, 85, 86, 87, 88, 89, 90, 91, 92, 93, 94, 95, 96, 97, 98, 99, 100, 101, 102, 103, 104, 105, 106, 107, 108, 109, 110, 111, 112, 113, 114, 115, 116, 117, 118, 119, 120, 121, 122, 123, 124, 125, 126, 127, 128, 129, 130, 131, 132, 133, 134, 135, 136, 137, 138, 139, 140, 141, 142, 143, 144, 145, 146, 147, 148, 149, 150, 151, 152, 153, 154, 155, 156, 157, 158, 159, 160, 161, 162, 163, 164, 165, 166, 167, 168, 169, 170, 171, 172, 173, 174, 175, 176, 177, 178, 179, 180, 181, 182, 183, 184, 185, 186, 187, 188, 189, 190, 191, 192, 193, 194, 195, 196, 197, 198, 199, 200, 201, 202, 203, 204, 205, 206, 207, 208, 209, 210, 211, 212, 213, 214, 215, 216, 217, 218, 219, 220, 221, 222, 223, 224, 225, 226, 227, 228, 229, 230, 231, 232, 233, 234, 235, 236, 237, 238, 239, 240, 241, 242, 243, 244, 245, 246, 247, 248, 249, 250, 251, 252, 253, 254, 255, 256, 257, 258, 259, 260, 261, 262, 263, 264, 265, 266, 267, 268, 269, 270, 271, 272, 273, 274, 275, 276, 277, 278, 279, 280, 281, 282, 283, 284, 285, 286, 287, 288, 289, 290, 291, 292, 293, 294, 295, 296, 297, 298, 299, 300, 301, 302, 303, 304, 305, 306, 307, 308, 309, 310, 311, 312, 313, 314, 315, 316, 317, 318, 319, 320, 321, 322, 323, 324, 325, 326, 327, 328, 329, 330, 331, 332, 333, 334, 335, 336, 337, 338, 339, 340, 341, 342, 343, 344, 345, 346, 347, 348, 349, 350, 351, 352, 353, 354, 355, 356, 357, 358, 359, 360, 361, 362, 363, 364, 365, 366, 367, 368, 369, 370, 371, 372, 373],
