{
  "AcquisitionMatrixPE": 108,
  "AcquisitionNumber": 1,
  "AcquisitionTime": "14:31:43.875000",
  "BandwidthPerPixelPhaseEncode": 15.964,
  "BaseResolution": 108,
  "BodyPartExamined": "BRAIN",
  "ConsistencyInfo": "N4_VE11C_LATEST_20160120",
  "ConversionSoftware": "dcm2niix",
  "ConversionSoftwareVersion": "v1.0.20180622 GCC6.3.0",
  "DerivedVendorReportedEchoSpacing": 0.000580009,
  "DeviceSerialNumber": "66054",
  "DwellTime": 2.1e-06,
  "EchoTime": 0.031,
  "EchoTrainLength": 95,
  "EffectiveEchoSpacing": 0.000580009,
  "FlipAngle": 64,
  "ImageOrientationPatientDICOM": [0.99854, 0.0400721, -0.0362202, -0.0505839, 0.928913, -0.366826],
  "ImageType": [
    "ORIGINAL",
    "PRIMARY",
    "M",
    "ND",
    "MOSAIC"
],
  "InPlanePhaseEncodingDirectionDICOM": "COL",
  "InstitutionAddress": "Chemin_des_Mines_9_Geneve_District_CH_1211",
  "InstitutionName": "Fondation_Campus_Biotech_Geneva",
  "InstitutionalDepartmentName": "Department",
  "MRAcquisitionType": "2D",
  "MagneticFieldStrength": 3,
  "Manufacturer": "Siemens",
  "ManufacturersModelName": "Prisma",
  "Modality": "MR",
  "MultibandAccelerationFactor": 4,
  "PartialFourier": 0.875,
  "PatientPosition": "HFS",
  "PercentPhaseFOV": 100,
  "PhaseEncodingDirection": "j-",
  "PhaseEncodingSteps": 95,
  "PhaseResolution": 1,
  "PixelBandwidth": 2205,
  "ProcedureStepDescription": "J.DRM_Michael",
  "ProtocolName": "Run2_bold_s4_TR1.28",
  "PulseSequenceDetails": "%SiemensSeq%_ep2d_bold",
  "ReceiveCoilActiveElements": "HC1-7;NC1,2",
  "ReceiveCoilName": "HeadNeck_64",
  "ReconMatrixPE": 108,
  "RepetitionTime": 1.28,
  "SAR": 0.0936589,
  "ScanOptions": "PFP_FS",
  "ScanningSequence": "EP",
  "SequenceName": "_epfid2d1_108",
  "SequenceVariant": "SK",
  "SeriesDescription": "Run2_bold_s4_TR1.28",
  "SeriesNumber": 6,
  "ShimSetting": [-1271, -11688, 6340, 513, 160, -98, -120, 73],
  "SliceThickness": 2,
  "SliceTiming": [0.945, 0, 0.63, 0.08, 0.71, 0.1575, 0.7875, 0.2375, 0.8675, 0.395, 1.025, 0.4725, 1.1025, 0.5525, 1.1825, 0.315, 0.945, 0, 0.63, 0.08, 0.71, 0.1575, 0.7875, 0.2375, 0.8675, 0.395, 1.025, 0.4725, 1.1025, 0.5525, 1.1825, 0.315, 0.945, 0, 0.63, 0.08, 0.71, 0.1575, 0.7875, 0.2375, 0.8675, 0.395, 1.025, 0.4725, 1.1025, 0.5525, 1.1825, 0.315, 0.945, 0, 0.63, 0.08, 0.71, 0.1575, 0.7875, 0.2375, 0.8675, 0.395, 1.025, 0.4725, 1.1025, 0.5525, 1.1825, 0.315],
  "SoftwareVersions": "syngo_MR_E11",
  "SpacingBetweenSlices": 2,
  "StationName": "AWP66054",
  "TaskName": "main",
  "TotalReadoutTime": 0.0620609,
  "TxRefAmp": 254.311,
  "dcmmeta_affine": [
    [-1.9878344535827637, -0.10069940984249115, -0.03789191693067551, 111.71354675292969],
    [-0.07977320998907089, 1.8492258787155151, -0.7362446188926697, -68.24689483642578],
    [-0.0721050500869751, 0.7302548289299011, 1.8591686487197876, -80.78678894042969],
    [0.0, 0.0, 0.0, 1.0]
],
  "dcmmeta_reorient_transform": [
    [0.0, -1.0, 0.0, 107.0],
    [1.0, 0.0, 0.0, 0.0],
    [0.0, 0.0, 1.0, 0.0],
    [0.0, 0.0, 0.0, 1.0]
],
  "dcmmeta_shape": [108, 108, 64, 373],
  "dcmmeta_slice_dim": 2,
  "dcmmeta_version": 0.6,
  "global": {
    "const": {
      "AccessionNumber": "",
      "AcquisitionMatrix": [108, 0, 0, 108],
      "AngioFlag": "N",
      "BitsAllocated": 16,
      "BitsStored": 12,
      "BodyPartExamined": "BRAIN",
      "Columns": 864,
      "EchoNumbers": 1,
      "EchoTime": 31.0,
      "EchoTrainLength": 95,
      "FlipAngle": 64.0,
      "HighBit": 11,
      "ImageOrientationPatient": [0.99854009487002, 0.04007212444639, -0.0362202123037, -0.0505838868389, 0.92891344772033, -0.3668256766321],
      "ImagePositionPatient": [-814.27577262283, -858.78193157122, 300.642515221],
      "ImageType": [
        "ORIGINAL",
        "PRIMARY",
        "M",
        "ND",
        "MOSAIC"
],
      "ImagedNucleus": "1H",
      "ImagingFrequency": 123.257497,
      "InPlanePhaseEncodingDirection": "COL",
      "MRAcquisitionType": "2D",
      "MagneticFieldStrength": 3.0,
      "Manufacturer": "SIEMENS",
      "ManufacturerModelName": "Prisma",
      "Modality": "MR",
      "NumberOfAverages": 1.0,
      "NumberOfPhaseEncodingSteps": 95,
      "PercentPhaseFieldOfView": 100.0,
      "PercentSampling": 100.0,
      "PerformedProcedureStepStartTime": "141638.689000",
      "PhotometricInterpretation": "MONOCHROME2",
      "PixelBandwidth": 2205.0,
      "PixelRepresentation": 0,
      "PixelSpacing": [1.990740776062, 1.990740776062],
      "PositionReferenceIndicator": "",
      "ProtocolName": "Run2_bold_s4_TR1.28",
      "RepetitionTime": 1280.0,
      "Rows": 864,
      "SAR": 0.09365889359988,
      "SamplesPerPixel": 1,
      "ScanOptions": [
        "PFP",
        "FS"
],
      "ScanningSequence": "EP",
      "SequenceName": "*epfid2d1_108",
      "SequenceVariant": "SK",
      "SeriesDescription": "Run2_bold_s4_TR1.28",
      "SeriesNumber": 6,
      "SeriesTime": "143225.714000",
      "SliceLocation": -52.091449003123,
      "SliceThickness": 2.0,
      "SmallestImagePixelValue": 0,
      "SoftwareVersions": "syngo MR E11",
      "SpacingBetweenSlices": 2.0000000430781,
      "SpecificCharacterSet": "ISO_IR 100",
      "StudyID": "1",
      "StudyTime": "141638.630000",
      "TransmitCoilName": "Body",
      "VariableFlipAngleFlag": "N",
      "WindowCenterWidthExplanation": "Algo1",
      "dBdt": 0.0},
    "slices": {}
  },
  "time": {
    "samples": {
      "AcquisitionNumber": [1, 2, 3, 4, 5, 6, 7, 8, 9, 10, 11, 12, 13, 14, 15, 16, 17, 18, 19, 20, 21, 22, 23, 24, 25, 26, 27, 28, 29, 30, 31, 32, 33, 34, 35, 36, 37, 38, 39, 40, 41, 42, 43, 44, 45, 46, 47, 48, 49, 50, 51, 52, 53, 54, 55, 56, 57, 58, 59, 60, 61, 62, 63, 64, 65, 66, 67, 68, 69, 70, 71, 72, 73, 74, 75, 76, 77, 78, 79, 80, 81, 82, 83, 84, 85, 86, 87, 88, 89, 90, 91, 92, 93, 94, 95, 96, 97, 98, 99, 100, 101, 102, 103, 104, 105, 106, 107, 108, 109, 110, 111, 112, 113, 114, 115, 116, 117, 118, 119, 120, 121, 122, 123, 124, 125, 126, 127, 128, 129, 130, 131, 132, 133, 134, 135, 136, 137, 138, 139, 140, 141, 142, 143, 144, 145, 146, 147, 148, 149, 150, 151, 152, 153, 154, 155, 156, 157, 158, 159, 160, 161, 162, 163, 164, 165, 166, 167, 168, 169, 170, 171, 172, 173, 174, 175, 176, 177, 178, 179, 180, 181, 182, 183, 184, 185, 186, 187, 188, 189, 190, 191, 192, 193, 194, 195, 196, 197, 198, 199, 200, 201, 202, 203, 204, 205, 206, 207, 208, 209, 210, 211, 212, 213, 214, 215, 216, 217, 218, 219, 220, 221, 222, 223, 224, 225, 226, 227, 228, 229, 230, 231, 232, 233, 234, 235, 236, 237, 238, 239, 240, 241, 242, 243, 244, 245, 246, 247, 248, 249, 250, 251, 252, 253, 254, 255, 256, 257, 258, 259, 260, 261, 262, 263, 264, 265, 266, 267, 268, 269, 270, 271, 272, 273, 274, 275, 276, 277, 278, 279, 280, 281, 282, 283, 284, 285, 286, 287, 288, 289, 290, 291, 292, 293, 294, 295, 296, 297, 298, 299, 300, 301, 302, 303, 304, 305, 306, 307, 308, 309, 310, 311, 312, 313, 314, 315, 316, 317, 318, 319, 320, 321, 322, 323, 324, 325, 326, 327, 328, 329, 330, 331, 332, 333, 334, 335, 336, 337, 338, 339, 340, 341, 342, 343, 344, 345, 346, 347, 348, 349, 350, 351, 352, 353, 354, 355, 356, 357, 358, 359, 360, 361, 362, 363, 364, 365, 366, 367, 368, 369, 370, 371, 372, 373],
      "AcquisitionTime": ["143143.875000", "143145.155000", "143146.435000", "143147.715000", "143148.995000", "143150.275000", "143151.555000", "143152.835000", "143154.115000", "143155.395000", "143156.675000", "143157.955000", "143159.235000", "143200.515000", "143201.795000", "143203.075000", "143204.355000", "143205.635000", "143206.915000", "143208.195000", "143209.475000", "143210.755000", "143212.035000", "143213.315000", "143214.595000", "143215.875000", "143217.155000", "143218.435000", "143219.715000", "143220.995000", "143222.275000", "143223.555000", "143224.835000", "143226.115000", "143227.395000", "143228.675000", "143229.955000", "143231.235000", "143232.515000", "143233.795000", "143235.075000", "143236.355000", "143237.635000", "143238.915000", "143240.195000", "143241.475000", "143242.755000", "143244.035000", "143245.315000", "143246.595000", "143247.875000", "143249.155000", "143250.435000", "143251.715000", "143252.995000", "143254.275000", "143255.555000", "143256.835000", "143258.115000", "143259.395000", "143300.675000", "143301.955000", "143303.235000", "143304.515000", "143305.795000", "143307.075000", "143308.355000", "143309.635000", "143310.915000", "143312.195000", "143313.475000", "143314.755000", "143316.035000", "143317.315000", "143318.595000", "143319.875000", "143321.155000", "143322.435000", "143323.715000", "143324.995000", "143326.275000", "143327.555000", "143328.835000", "143330.115000", "143331.395000", "143332.675000", "143333.955000", "143335.235000", "143336.515000", "143337.795000", "143339.075000", "143340.355000", "143341.635000", "143342.915000", "143344.195000", "143345.475000", "143346.755000", "143348.035000", "143349.315000", "143350.595000", "143351.875000", "143353.155000", "143354.435000", "143355.715000", "143356.995000", "143358.275000", "143359.555000", "143400.835000", "143402.115000", "143403.395000", "143404.675000", "143405.955000", "143407.235000", "143408.515000", "143409.795000", "143411.075000", "143412.355000", "143413.635000", "143414.915000", "143416.195000", "143417.475000", "143418.755000", "143420.035000", "143421.315000", "143422.595000", "143423.875000", "143425.155000", "143426.435000", "143427.715000", "143428.995000", "143430.275000", "143431.555000", "143432.835000", "143434.115000", "143435.395000", "143436.675000", "143437.955000", "143439.235000", "143440.515000", "143441.795000", "143443.075000", "143444.355000", "143445.635000", "143446.915000", "143448.195000", "143449.475000", "143450.755000", "143452.035000", "143453.315000", "143454.595000", "143455.875000", "143457.155000", "143458.435000", "143459.715000", "143500.995000", "143502.275000", "143503.555000", "143504.835000", "143506.115000", "143507.395000", "143508.675000", "143509.955000", "143511.235000", "143512.515000", "143513.795000", "143515.075000", "143516.355000", "143517.635000", "143518.915000", "143520.195000", "143521.475000", "143522.755000", "143524.035000", "143525.315000", "143526.595000", "143527.875000", "143529.155000", "143530.435000", "143531.715000", "143532.995000", "143534.275000", "143535.555000", "143536.835000", "143538.115000", "143539.395000", "143540.675000", "143541.955000", "143543.235000", "143544.515000", "143545.795000", "143547.075000", "143548.355000", "143549.635000", "143550.915000", "143552.195000", "143553.475000", "143554.755000", "143556.035000", "143557.315000", "143558.595000", "143559.875000", "143601.155000", "143602.435000", "143603.715000", "143604.995000", "143606.275000", "143607.555000", "143608.835000", "143610.115000", "143611.395000", "143612.675000", "143613.955000", "143615.235000", "143616.515000", "143617.795000", "143619.075000", "143620.355000", "143621.635000", "143622.915000", "143624.195000", "143625.475000", "143626.755000", "143628.035000", "143629.315000", "143630.595000", "143631.875000", "143633.155000", "143634.435000", "143635.715000", "143636.995000", "143638.275000", "143639.555000", "143640.835000", "143642.115000", "143643.395000", "143644.675000", "143645.955000", "143647.235000", "143648.515000", "143649.795000", "143651.075000", "143652.355000", "143653.635000", "143654.915000", "143656.195000", "143657.475000", "143658.755000", "143700.035000", "143701.315000", "143702.595000", "143703.875000", "143705.155000", "143706.435000", "143707.715000", "143708.995000", "143710.275000", "143711.555000", "143712.835000", "143714.115000", "143715.395000", "143716.675000", "143717.955000", "143719.235000", "143720.515000", "143721.795000", "143723.075000", "143724.355000", "143725.635000", "143726.915000", "143728.195000", "143729.475000", "143730.755000", "143732.035000", "143733.315000", "143734.595000", "143735.875000", "143737.155000", "143738.435000", "143739.715000", "143740.995000", "143742.275000", "143743.555000", "143744.835000", "143746.115000", "143747.395000", "143748.675000", "143749.955000", "143751.235000", "143752.515000", "143753.795000", "143755.075000", "143756.355000", "143757.635000", "143758.915000", "143800.195000", "143801.475000", "143802.755000", "143804.035000", "143805.315000", "143806.595000", "143807.875000", "143809.155000", "143810.435000", "143811.715000", "143812.995000", "143814.275000", "143815.555000", "143816.835000", "143818.115000", "143819.395000", "143820.675000", "143821.955000", "143823.235000", "143824.515000", "143825.795000", "143827.075000", "143828.355000", "143829.635000", "143830.915000", "143832.195000", "143833.475000", "143834.755000", "143836.035000", "143837.315000", "143838.595000", "143839.875000", "143841.155000", "143842.435000", "143843.715000", "143844.995000", "143846.275000", "143847.555000", "143848.835000", "143850.115000", "143851.395000", "143852.675000", "143853.955000", "143855.235000", "143856.515000", "143857.795000", "143859.075000", "143900.355000", "143901.635000", "143902.915000", "143904.195000", "143905.475000", "143906.755000", "143908.035000", "143909.315000", "143910.595000", "143911.875000", "143913.155000", "143914.435000", "143915.715000", "143916.995000", "143918.275000", "143919.555000", "143920.835000", "143922.115000", "143923.395000", "143924.675000", "143925.955000", "143927.235000", "143928.515000", "143929.795000", "143931.075000", "143932.355000", "143933.635000", "143934.915000", "143936.195000", "143937.475000", "143938.755000", "143940.035000"],
      "ContentTime": ["143225.718000", "143225.722000", "143225.725000", "143225.728000", "143225.731000", "143225.734000", "143225.737000", "143225.740000", "143225.743000", "143225.750000", "143225.753000", "143225.756000", "143225.759000", "143225.762000", "143225.765000", "143225.768000", "143225.770000", "143225.774000", "143225.796000", "143225.799000", "143225.802000", "143225.805000", "143225.808000", "143225.811000", "143225.814000", "143225.817000", "143225.820000", "143225.823000", "143225.825000", "143225.828000", "143225.831000", "143225.834000", "143305.706000", "143305.709000", "143305.712000", "143305.715000", "143305.718000", "143305.721000", "143305.724000", "143305.727000", "143305.729000", "143305.732000", "143305.735000", "143305.738000", "143305.741000", "143305.744000", "143305.747000", "143305.750000", "143305.752000", "143305.755000", "143305.758000", "143305.768000", "143305.771000", "143305.774000", "143305.777000", "143305.780000", "143305.783000", "143305.786000", "143305.789000", "143305.792000", "143305.795000", "143305.798000", "143305.801000", "143345.706000", "143345.709000", "143345.712000", "143345.715000", "143345.718000", "143345.725000", "143345.728000", "143345.731000", "143345.734000", "143345.736000", "143345.739000", "143345.742000", "143345.745000", "143345.748000", "143345.751000", "143345.754000", "143345.757000", "143345.760000", "143345.763000", "143345.766000", "143345.804000", "143345.807000", "143345.810000", "143345.813000", "143345.816000", "143345.819000", "143345.822000", "143345.825000", "143345.828000", "143345.831000", "143345.834000", "143345.837000", "143425.706000", "143425.709000", "143425.712000", "143425.715000", "143425.722000", "143425.724000", "143425.727000", "143425.730000", "143425.733000", "143425.736000", "143425.739000", "143425.742000", "143425.745000", "143425.748000", "143425.751000", "143425.753000", "143425.756000", "143425.759000", "143425.762000", "143425.765000", "143425.768000", "143425.771000", "143425.774000", "143425.777000", "143425.780000", "143425.783000", "143425.786000", "143425.789000", "143425.792000", "143425.795000", "143425.797000", "143505.706000", "143505.709000", "143505.712000", "143505.715000", "143505.718000", "143505.721000", "143505.723000", "143505.726000", "143505.729000", "143505.732000", "143505.735000", "143505.738000", "143505.741000", "143505.744000", "143505.747000", "143505.750000", "143505.753000", "143505.756000", "143505.758000", "143505.761000", "143505.764000", "143505.767000", "143505.770000", "143505.773000", "143505.776000", "143505.779000", "143505.782000", "143505.785000", "143505.788000", "143505.791000", "143505.793000", "143545.706000", "143545.709000", "143545.712000", "143545.715000", "143545.718000", "143545.720000", "143545.723000", "143545.726000", "143545.729000", "143545.732000", "143545.735000", "143545.738000", "143545.741000", "143545.744000", "143545.747000", "143545.750000", "143545.753000", "143545.755000", "143545.758000", "143545.761000", "143545.764000", "143545.767000", "143545.770000", "143545.773000", "143545.776000", "143545.779000", "143545.782000", "143545.784000", "143545.787000", "143545.790000", "143545.793000", "143625.706000", "143625.709000", "143625.712000", "143625.730000", "143625.733000", "143625.736000", "143625.739000", "143625.742000", "143625.745000", "143625.748000", "143625.751000", "143625.754000", "143625.757000", "143625.760000", "143625.763000", "143625.765000", "143625.768000", "143625.771000", "143625.774000", "143625.777000", "143625.780000", "143625.783000", "143625.786000", "143625.789000", "143625.792000", "143625.794000", "143625.797000", "143625.800000", "143625.803000", "143625.806000", "143625.809000", "143625.812000", "143705.706000", "143705.709000", "143705.712000", "143705.715000", "143705.718000", "143705.721000", "143705.724000", "143705.726000", "143705.729000", "143705.732000", "143705.735000", "143705.738000", "143705.741000", "143705.744000", "143705.747000", "143705.750000", "143705.753000", "143705.756000", "143705.759000", "143705.762000", "143705.764000", "143705.767000", "143705.770000", "143705.773000", "143705.776000", "143705.779000", "143705.782000", "143705.785000", "143705.788000", "143705.791000", "143705.794000", "143745.706000", "143745.709000", "143745.712000", "143745.715000", "143745.718000", "143745.721000", "143745.724000", "143745.727000", "143745.729000", "143745.739000", "143745.742000", "143745.745000", "143745.747000", "143745.750000", "143745.753000", "143745.756000", "143745.759000", "143745.762000", "143745.765000", "143745.768000", "143745.771000", "143745.774000", "143745.777000", "143745.780000", "143745.783000", "143745.786000", "143745.788000", "143745.791000", "143745.794000", "143745.797000", "143745.800000", "143805.706000", "143805.709000", "143805.712000", "143805.715000", "143805.718000", "143805.721000", "143805.724000", "143805.727000", "143805.729000", "143805.732000", "143805.735000", "143805.738000", "143805.741000", "143805.744000", "143805.747000", "143805.750000", "143845.706000", "143845.709000", "143845.712000", "143845.715000", "143845.718000", "143845.721000", "143845.724000", "143845.727000", "143845.730000", "143845.732000", "143845.735000", "143845.738000", "143845.741000", "143845.744000", "143845.747000", "143845.750000", "143845.753000", "143845.756000", "143845.759000", "143845.762000", "143845.765000", "143845.768000", "143845.771000", "143845.774000", "143845.776000", "143845.779000", "143845.782000", "143845.785000", "143845.788000", "143845.791000", "143845.794000", "143925.706000", "143925.709000", "143925.712000", "143925.715000", "143925.718000", "143925.721000", "143925.724000", "143925.727000", "143925.730000", "143925.732000", "143925.735000", "143925.738000", "143925.741000", "143925.744000", "143925.747000", "143925.750000", "143925.753000", "143925.756000", "143925.759000", "143925.762000", "143925.765000", "143925.768000", "143925.771000", "143925.774000", "143925.777000", "143925.780000", "143925.782000", "143925.785000", "143925.788000", "143925.791000", "143925.794000", "143941.349000", "143941.353000", "143941.356000", "143941.359000", "143941.362000", "143941.365000", "143941.368000", "143941.372000", "143941.375000", "143941.378000", "143941.390000", "143941.394000", "143941.397000"],
      "InstanceCreationTime": ["143225.718000", "143225.722000", "143225.725000", "143225.728000", "143225.731000", "143225.734000", "143225.737000", "143225.740000", "143225.743000", "143225.750000", "143225.753000", "143225.756000", "143225.759000", "143225.762000", "143225.765000", "143225.768000", "143225.770000", "143225.774000", "143225.796000", "143225.799000", "143225.802000", "143225.805000", "143225.808000", "143225.811000", "143225.814000", "143225.817000", "143225.820000", "143225.823000", "143225.825000", "143225.828000", "143225.831000", "143225.834000", "143305.706000", "143305.709000", "143305.712000", "143305.715000", "143305.718000", "143305.721000", "143305.724000", "143305.727000", "143305.729000", "143305.732000", "143305.735000", "143305.738000", "143305.741000", "143305.744000", "143305.747000", "143305.750000", "143305.752000", "143305.755000", "143305.758000", "143305.768000", "143305.771000", "143305.774000", "143305.777000", "143305.780000", "143305.783000", "143305.786000", "143305.789000", "143305.792000", "143305.795000", "143305.798000", "143305.801000", "143345.706000", "143345.709000", "143345.712000", "143345.715000", "143345.718000", "143345.725000", "143345.728000", "143345.731000", "143345.734000", "143345.736000", "143345.739000", "143345.742000", "143345.745000", "143345.748000", "143345.751000", "143345.754000", "143345.757000", "143345.760000", "143345.763000", "143345.766000", "143345.804000", "143345.807000", "143345.810000", "143345.813000", "143345.816000", "143345.819000", "143345.822000", "143345.825000", "143345.828000", "143345.831000", "143345.834000", "143345.837000", "143425.706000", "143425.709000", "143425.712000", "143425.715000", "143425.722000", "143425.724000", "143425.727000", "143425.730000", "143425.733000", "143425.736000", "143425.739000", "143425.742000", "143425.745000", "143425.748000", "143425.751000", "143425.753000", "143425.756000", "143425.759000", "143425.762000", "143425.765000", "143425.768000", "143425.771000", "143425.774000", "143425.777000", "143425.780000", "143425.783000", "143425.786000", "143425.789000", "143425.792000", "143425.795000", "143425.797000", "143505.706000", "143505.709000", "143505.712000", "143505.715000", "143505.718000", "143505.721000", "143505.723000", "143505.726000", "143505.729000", "143505.732000", "143505.735000", "143505.738000", "143505.741000", "143505.744000", "143505.747000", "143505.750000", "143505.753000", "143505.756000", "143505.758000", "143505.761000", "143505.764000", "143505.767000", "143505.770000", "143505.773000", "143505.776000", "143505.779000", "143505.782000", "143505.785000", "143505.788000", "143505.791000", "143505.793000", "143545.706000", "143545.709000", "143545.712000", "143545.715000", "143545.718000", "143545.720000", "143545.723000", "143545.726000", "143545.729000", "143545.732000", "143545.735000", "143545.738000", "143545.741000", "143545.744000", "143545.747000", "143545.750000", "143545.753000", "143545.755000", "143545.758000", "143545.761000", "143545.764000", "143545.767000", "143545.770000", "143545.773000", "143545.776000", "143545.779000", "143545.782000", "143545.784000", "143545.787000", "143545.790000", "143545.793000", "143625.706000", "143625.709000", "143625.712000", "143625.730000", "143625.733000", "143625.736000", "143625.739000", "143625.742000", "143625.745000", "143625.748000", "143625.751000", "143625.754000", "143625.757000", "143625.760000", "143625.763000", "143625.765000", "143625.768000", "143625.771000", "143625.774000", "143625.777000", "143625.780000", "143625.783000", "143625.786000", "143625.789000", "143625.792000", "143625.794000", "143625.797000", "143625.800000", "143625.803000", "143625.806000", "143625.809000", "143625.812000", "143705.706000", "143705.709000", "143705.712000", "143705.715000", "143705.718000", "143705.721000", "143705.724000", "143705.726000", "143705.729000", "143705.732000", "143705.735000", "143705.738000", "143705.741000", "143705.744000", "143705.747000", "143705.750000", "143705.753000", "143705.756000", "143705.759000", "143705.762000", "143705.764000", "143705.767000", "143705.770000", "143705.773000", "143705.776000", "143705.779000", "143705.782000", "143705.785000", "143705.788000", "143705.791000", "143705.794000", "143745.706000", "143745.709000", "143745.712000", "143745.715000", "143745.718000", "143745.721000", "143745.724000", "143745.727000", "143745.729000", "143745.739000", "143745.742000", "143745.745000", "143745.747000", "143745.750000", "143745.753000", "143745.756000", "143745.759000", "143745.762000", "143745.765000", "143745.768000", "143745.771000", "143745.774000", "143745.777000", "143745.780000", "143745.783000", "143745.786000", "143745.788000", "143745.791000", "143745.794000", "143745.797000", "143745.800000", "143805.706000", "143805.709000", "143805.712000", "143805.715000", "143805.718000", "143805.721000", "143805.724000", "143805.727000", "143805.729000", "143805.732000", "143805.735000", "143805.738000", "143805.741000", "143805.744000", "143805.747000", "143805.750000", "143845.706000", "143845.709000", "143845.712000", "143845.715000", "143845.718000", "143845.721000", "143845.724000", "143845.727000", "143845.730000", "143845.732000", "143845.735000", "143845.738000", "143845.741000", "143845.744000", "143845.747000", "143845.750000", "143845.753000", "143845.756000", "143845.759000", "143845.762000", "143845.765000", "143845.768000", "143845.771000", "143845.774000", "143845.776000", "143845.779000", "143845.782000", "143845.785000", "143845.788000", "143845.791000", "143845.794000", "143925.706000", "143925.709000", "143925.712000", "143925.715000", "143925.718000", "143925.721000", "143925.724000", "143925.727000", "143925.730000", "143925.732000", "143925.735000", "143925.738000", "143925.741000", "143925.744000", "143925.747000", "143925.750000", "143925.753000", "143925.756000", "143925.759000", "143925.762000", "143925.765000", "143925.768000", "143925.771000", "143925.774000", "143925.777000", "143925.780000", "143925.782000", "143925.785000", "143925.788000", "143925.791000", "143925.794000", "143941.349000", "143941.353000", "143941.356000", "143941.359000", "143941.362000", "143941.365000", "143941.368000", "143941.372000", "143941.375000", "143941.378000", "143941.390000", "143941.394000", "143941.397000"],
      "InstanceNumber": [1, 2, 3, 4, 5, 6, 7, 8, 9, 10, 11, 12, 13, 14, 15, 16, 17, 18, 19, 20, 21, 22, 23, 24, 25, 26, 27, 28, 29, 30, 31, 32, 33, 34, 35, 36, 37, 38, 39, 40, 41, 42, 43, 44, 45, 46, 47, 48, 49, 50, 51, 52, 53, 54, 55, 56, 57, 58, 59, 60, 61, 62, 63, 64, 65, 66, 67, 68, 69, 70, 71, 72, 73, 74, 75, 76, 77, 78, 79, 80, 81, 82, 83, 84, 85, 86, 87, 88, 89, 90, 91, 92, 93, 94, 95, 96, 97, 98, 99, 100, 101, 102, 103, 104, 105, 106, 107, 108, 109, 110, 111, 112, 113, 114, 115, 116, 117, 118, 119, 120, 121, 122, 123, 124, 125, 126, 127, 128, 129, 130, 131, 132, 133, 134, 135, 136, 137, 138, 139, 140, 141, 142, 143, 144, 145, 146, 147, 148, 149, 150, 151, 152, 153, 154, 155, 156, 157, 158, 159, 160, 161, 162, 163, 164, 165, 166, 167, 168, 169, 170, 171, 172, 173, 174, 175, 176, 177, 178, 179, 180, 181, 182, 183, 184, 185, 186, 187, 188, 189, 190, 191, 192, 193, 194, 195, 196, 197, 198, 199, 200, 201, 202, 203, 204, 205, 206, 207, 208, 209, 210, 211, 212, 213, 214, 215, 216, 217, 218, 219, 220, 221, 222, 223, 224, 225, 226, 227, 228, 229, 230, 231, 232, 233, 234, 235, 236, 237, 238, 239, 240, 241, 242, 243, 244, 245, 246, 247, 248, 249, 250, 251, 252, 253, 254, 255, 256, 257, 258, 259, 260, 261, 262, 263, 264, 265, 266, 267, 268, 269, 270, 271, 272, 273, 274, 275, 276, 277, 278, 279, 280, 281, 282, 283, 284, 285, 286, 287, 288, 289, 290, 291, 292, 293, 294, 295, 296, 297, 298, 299, 300, 301, 302, 303, 304, 305, 306, 307, 308, 309, 310, 311, 312, 313, 314, 315, 316, 317, 318, 319, 320, 321, 322, 323, 324, 325, 326, 327, 328, 329, 330, 331, 332, 333, 334, 335, 336, 337, 338, 339, 340, 341, 342, 343, 344, 345, 346, 347, 348, 349, 350, 351, 352, 353, 354, 355, 356, 357, 358, 359, 360, 361, 362, 363, 364, 365, 366, 367, 368, 369, 370, 371, 372, 373],
