{
  "AcquisitionMatrixPE": 108,
  "AcquisitionNumber": 1,
  "AcquisitionTime": "15:23:11.455000",
  "BandwidthPerPixelPhaseEncode": 15.964,
  "BaseResolution": 108,
  "BodyPartExamined": "BRAIN",
  "ConsistencyInfo": "N4_VE11C_LATEST_20160120",
  "ConversionSoftware": "dcm2niix",
  "ConversionSoftwareVersion": "v1.0.20180622 GCC6.3.0",
  "DerivedVendorReportedEchoSpacing": 0.000580009,
  "DeviceSerialNumber": "66054",
  "DwellTime": 2.1e-06,
  "EchoTime": 0.031,
  "EchoTrainLength": 95,
  "EffectiveEchoSpacing": 0.000580009,
  "FlipAngle": 64,
  "ImageOrientationPatientDICOM": [0.99854, 0.0400721, -0.0362202, -0.0505839, 0.928913, -0.366826],
  "ImageType": [
    "ORIGINAL",
    "PRIMARY",
    "M",
    "ND",
    "MOSAIC"
],
  "InPlanePhaseEncodingDirectionDICOM": "COL",
  "InstitutionAddress": "Chemin_des_Mines_9_Geneve_District_CH_1211",
  "InstitutionName": "Fondation_Campus_Biotech_Geneva",
  "InstitutionalDepartmentName": "Department",
  "MRAcquisitionType": "2D",
  "MagneticFieldStrength": 3,
  "Manufacturer": "Siemens",
  "ManufacturersModelName": "Prisma",
  "Modality": "MR",
  "MultibandAccelerationFactor": 4,
  "PartialFourier": 0.875,
  "PatientPosition": "HFS",
  "PercentPhaseFOV": 100,
  "PhaseEncodingDirection": "j-",
  "PhaseEncodingSteps": 95,
  "PhaseResolution": 1,
  "PixelBandwidth": 2205,
  "ProcedureStepDescription": "J.DRM_Michael",
  "ProtocolName": "Run6_bold_s4_TR1.28",
  "PulseSequenceDetails": "%SiemensSeq%_ep2d_bold",
  "ReceiveCoilActiveElements": "HC1-7;NC1,2",
  "ReceiveCoilName": "HeadNeck_64",
  "ReconMatrixPE": 108,
  "RepetitionTime": 1.28,
  "SAR": 0.0936589,
  "ScanOptions": "PFP_FS",
  "ScanningSequence": "EP",
  "SequenceName": "_epfid2d1_108",
  "SequenceVariant": "SK",
  "SeriesDescription": "Run6_bold_s4_TR1.28",
  "SeriesNumber": 14,
  "ShimSetting": [-1271, -11688, 6340, 513, 160, -98, -120, 73],
  "SliceThickness": 2,
  "SliceTiming": [0.945, 0, 0.63, 0.08, 0.71, 0.1575, 0.7875, 0.2375, 0.8675, 0.395, 1.025, 0.4725, 1.1025, 0.5525, 1.1825, 0.315, 0.945, 0, 0.63, 0.08, 0.71, 0.1575, 0.7875, 0.2375, 0.8675, 0.395, 1.025, 0.4725, 1.1025, 0.5525, 1.1825, 0.315, 0.945, 0, 0.63, 0.08, 0.71, 0.1575, 0.7875, 0.2375, 0.8675, 0.395, 1.025, 0.4725, 1.1025, 0.5525, 1.1825, 0.315, 0.945, 0, 0.63, 0.08, 0.71, 0.1575, 0.7875, 0.2375, 0.8675, 0.395, 1.025, 0.4725, 1.1025, 0.5525, 1.1825, 0.315],
  "SoftwareVersions": "syngo_MR_E11",
  "SpacingBetweenSlices": 2,
  "StationName": "AWP66054",
  "TaskName": "main",
  "TotalReadoutTime": 0.0620609,
  "TxRefAmp": 254.311,
  "dcmmeta_affine": [
    [-1.9878344535827637, -0.10069940984249115, -0.03789191693067551, 111.71354675292969],
    [-0.07977320998907089, 1.8492258787155151, -0.7362446188926697, -68.24689483642578],
    [-0.0721050500869751, 0.7302548289299011, 1.8591686487197876, -80.78678894042969],
    [0.0, 0.0, 0.0, 1.0]
],
  "dcmmeta_reorient_transform": [
    [0.0, -1.0, 0.0, 107.0],
    [1.0, 0.0, 0.0, 0.0],
    [0.0, 0.0, 1.0, 0.0],
    [0.0, 0.0, 0.0, 1.0]
],
  "dcmmeta_shape": [108, 108, 64, 373],
  "dcmmeta_slice_dim": 2,
  "dcmmeta_version": 0.6,
  "global": {
    "const": {
      "AccessionNumber": "",
      "AcquisitionMatrix": [108, 0, 0, 108],
      "AngioFlag": "N",
      "BitsAllocated": 16,
      "BitsStored": 12,
      "BodyPartExamined": "BRAIN",
      "Columns": 864,
      "EchoNumbers": 1,
      "EchoTime": 31.0,
      "EchoTrainLength": 95,
      "FlipAngle": 64.0,
      "HighBit": 11,
      "ImageOrientationPatient": [0.99854009487002, 0.04007212444639, -0.0362202123037, -0.0505838868389, 0.92891344772033, -0.3668256766321],
      "ImagePositionPatient": [-814.27577262283, -858.78193157122, 300.642515221],
      "ImageType": [
        "ORIGINAL",
        "PRIMARY",
        "M",
        "ND",
        "MOSAIC"
],
      "ImagedNucleus": "1H",
      "ImagingFrequency": 123.257512,
      "InPlanePhaseEncodingDirection": "COL",
      "MRAcquisitionType": "2D",
      "MagneticFieldStrength": 3.0,
      "Manufacturer": "SIEMENS",
      "ManufacturerModelName": "Prisma",
      "Modality": "MR",
      "NumberOfAverages": 1.0,
      "NumberOfPhaseEncodingSteps": 95,
      "PercentPhaseFieldOfView": 100.0,
      "PercentSampling": 100.0,
      "PerformedProcedureStepStartTime": "141638.689000",
      "PhotometricInterpretation": "MONOCHROME2",
      "PixelBandwidth": 2205.0,
      "PixelRepresentation": 0,
      "PixelSpacing": [1.990740776062, 1.990740776062],
      "PositionReferenceIndicator": "",
      "ProtocolName": "Run6_bold_s4_TR1.28",
      "RepetitionTime": 1280.0,
      "Rows": 864,
      "SAR": 0.09365889359988,
      "SamplesPerPixel": 1,
      "ScanOptions": [
        "PFP",
        "FS"
],
      "ScanningSequence": "EP",
      "SequenceName": "*epfid2d1_108",
      "SequenceVariant": "SK",
      "SeriesDescription": "Run6_bold_s4_TR1.28",
      "SeriesNumber": 14,
      "SeriesTime": "152340.416000",
      "SliceLocation": -52.091449003123,
      "SliceThickness": 2.0,
      "SmallestImagePixelValue": 0,
      "SoftwareVersions": "syngo MR E11",
      "SpacingBetweenSlices": 2.0000000430781,
      "SpecificCharacterSet": "ISO_IR 100",
      "StudyID": "1",
      "StudyTime": "141638.630000",
      "TransmitCoilName": "Body",
      "VariableFlipAngleFlag": "N",
      "WindowCenterWidthExplanation": "Algo1",
      "dBdt": 0.0},
    "slices": {}
  },
  "time": {
    "samples": {
      "AcquisitionNumber": [1, 2, 3, 4, 5, 6, 7, 8, 9, 10, 11, 12, 13, 14, 15, 16, 17, 18, 19, 20, 21, 22, 23, 24, 25, 26, 27, 28, 29, 30, 31, 32, 33, 34, 35, 36, 37, 38, 39, 40, 41, 42, 43, 44, 45, 46, 47, 48, 49, 50, 51, 52, 53, 54, 55, 56, 57, 58, 59, 60, 61, 62, 63, 64, 65, 66, 67, 68, 69, 70, 71, 72, 73, 74, 75, 76, 77, 78, 79, 80, 81, 82, 83, 84, 85, 86, 87, 88, 89, 90, 91, 92, 93, 94, 95, 96, 97, 98, 99, 100, 101, 102, 103, 104, 105, 106, 107, 108, 109, 110, 111, 112, 113, 114, 115, 116, 117, 118, 119, 120, 121, 122, 123, 124, 125, 126, 127, 128, 129, 130, 131, 132, 133, 134, 135, 136, 137, 138, 139, 140, 141, 142, 143, 144, 145, 146, 147, 148, 149, 150, 151, 152, 153, 154, 155, 156, 157, 158, 159, 160, 161, 162, 163, 164, 165, 166, 167, 168, 169, 170, 171, 172, 173, 174, 175, 176, 177, 178, 179, 180, 181, 182, 183, 184, 185, 186, 187, 188, 189, 190, 191, 192, 193, 194, 195, 196, 197, 198, 199, 200, 201, 202, 203, 204, 205, 206, 207, 208, 209, 210, 211, 212, 213, 214, 215, 216, 217, 218, 219, 220, 221, 222, 223, 224, 225, 226, 227, 228, 229, 230, 231, 232, 233, 234, 235, 236, 237, 238, 239, 240, 241, 242, 243, 244, 245, 246, 247, 248, 249, 250, 251, 252, 253, 254, 255, 256, 257, 258, 259, 260, 261, 262, 263, 264, 265, 266, 267, 268, 269, 270, 271, 272, 273, 274, 275, 276, 277, 278, 279, 280, 281, 282, 283, 284, 285, 286, 287, 288, 289, 290, 291, 292, 293, 294, 295, 296, 297, 298, 299, 300, 301, 302, 303, 304, 305, 306, 307, 308, 309, 310, 311, 312, 313, 314, 315, 316, 317, 318, 319, 320, 321, 322, 323, 324, 325, 326, 327, 328, 329, 330, 331, 332, 333, 334, 335, 336, 337, 338, 339, 340, 341, 342, 343, 344, 345, 346, 347, 348, 349, 350, 351, 352, 353, 354, 355, 356, 357, 358, 359, 360, 361, 362, 363, 364, 365, 366, 367, 368, 369, 370, 371, 372, 373],
      "AcquisitionTime": ["152311.455000", "152312.735000", "152314.015000", "152315.295000", "152316.575000", "152317.855000", "152319.135000", "152320.415000", "152321.695000", "152322.975000", "152324.255000", "152325.535000", "152326.815000", "152328.095000", "152329.375000", "152330.655000", "152331.935000", "152333.215000", "152334.495000", "152335.775000", "152337.055000", "152338.335000", "152339.615000", "152340.895000", "152342.175000", "152343.455000", "152344.735000", "152346.015000", "152347.295000", "152348.575000", "152349.855000", "152351.135000", "152352.415000", "152353.695000", "152354.975000", "152356.255000", "152357.535000", "152358.815000", "152400.095000", "152401.375000", "152402.655000", "152403.935000", "152405.215000", "152406.495000", "152407.775000", "152409.055000", "152410.335000", "152411.615000", "152412.895000", "152414.175000", "152415.455000", "152416.735000", "152418.015000", "152419.295000", "152420.575000", "152421.855000", "152423.135000", "152424.415000", "152425.695000", "152426.975000", "152428.255000", "152429.535000", "152430.815000", "152432.095000", "152433.375000", "152434.655000", "152435.935000", "152437.215000", "152438.495000", "152439.775000", "152441.055000", "152442.335000", "152443.615000", "152444.895000", "152446.175000", "152447.455000", "152448.735000", "152450.015000", "152451.295000", "152452.575000", "152453.855000", "152455.135000", "152456.415000", "152457.695000", "152458.975000", "152500.255000", "152501.535000", "152502.815000", "152504.095000", "152505.375000", "152506.655000", "152507.935000", "152509.215000", "152510.495000", "152511.775000", "152513.055000", "152514.335000", "152515.615000", "152516.895000", "152518.175000", "152519.455000", "152520.735000", "152522.015000", "152523.295000", "152524.575000", "152525.855000", "152527.135000", "152528.415000", "152529.695000", "152530.975000", "152532.255000", "152533.535000", "152534.815000", "152536.095000", "152537.375000", "152538.655000", "152539.935000", "152541.215000", "152542.495000", "152543.775000", "152545.055000", "152546.335000", "152547.615000", "152548.895000", "152550.175000", "152551.455000", "152552.735000", "152554.015000", "152555.295000", "152556.575000", "152557.855000", "152559.135000", "152600.415000", "152601.695000", "152602.975000", "152604.255000", "152605.535000", "152606.815000", "152608.095000", "152609.375000", "152610.655000", "152611.935000", "152613.215000", "152614.495000", "152615.775000", "152617.055000", "152618.335000", "152619.615000", "152620.895000", "152622.175000", "152623.455000", "152624.735000", "152626.015000", "152627.295000", "152628.575000", "152629.855000", "152631.135000", "152632.415000", "152633.695000", "152634.975000", "152636.255000", "152637.535000", "152638.815000", "152640.095000", "152641.375000", "152642.655000", "152643.935000", "152645.215000", "152646.495000", "152647.775000", "152649.055000", "152650.335000", "152651.615000", "152652.895000", "152654.175000", "152655.455000", "152656.735000", "152658.015000", "152659.295000", "152700.575000", "152701.855000", "152703.135000", "152704.415000", "152705.695000", "152706.975000", "152708.255000", "152709.535000", "152710.815000", "152712.095000", "152713.375000", "152714.655000", "152715.935000", "152717.215000", "152718.495000", "152719.775000", "152721.055000", "152722.335000", "152723.615000", "152724.895000", "152726.175000", "152727.455000", "152728.735000", "152730.015000", "152731.295000", "152732.575000", "152733.855000", "152735.135000", "152736.415000", "152737.695000", "152738.975000", "152740.255000", "152741.535000", "152742.815000", "152744.095000", "152745.375000", "152746.655000", "152747.935000", "152749.215000", "152750.495000", "152751.775000", "152753.055000", "152754.335000", "152755.615000", "152756.895000", "152758.175000", "152759.455000", "152800.735000", "152802.015000", "152803.295000", "152804.575000", "152805.855000", "152807.135000", "152808.415000", "152809.695000", "152810.975000", "152812.255000", "152813.535000", "152814.815000", "152816.095000", "152817.375000", "152818.655000", "152819.935000", "152821.215000", "152822.495000", "152823.775000", "152825.055000", "152826.335000", "152827.615000", "152828.895000", "152830.175000", "152831.455000", "152832.735000", "152834.015000", "152835.295000", "152836.575000", "152837.855000", "152839.135000", "152840.415000", "152841.695000", "152842.975000", "152844.255000", "152845.535000", "152846.815000", "152848.095000", "152849.375000", "152850.655000", "152851.935000", "152853.215000", "152854.495000", "152855.775000", "152857.055000", "152858.335000", "152859.615000", "152900.895000", "152902.175000", "152903.455000", "152904.735000", "152906.015000", "152907.295000", "152908.575000", "152909.855000", "152911.135000", "152912.415000", "152913.695000", "152914.975000", "152916.255000", "152917.535000", "152918.815000", "152920.095000", "152921.375000", "152922.655000", "152923.935000", "152925.215000", "152926.495000", "152927.775000", "152929.055000", "152930.335000", "152931.615000", "152932.895000", "152934.175000", "152935.455000", "152936.735000", "152938.015000", "152939.295000", "152940.575000", "152941.855000", "152943.135000", "152944.415000", "152945.695000", "152946.975000", "152948.255000", "152949.535000", "152950.815000", "152952.095000", "152953.375000", "152954.655000", "152955.935000", "152957.215000", "152958.495000", "152959.775000", "153001.055000", "153002.335000", "153003.615000", "153004.895000", "153006.175000", "153007.455000", "153008.735000", "153010.015000", "153011.295000", "153012.575000", "153013.855000", "153015.135000", "153016.415000", "153017.695000", "153018.975000", "153020.255000", "153021.535000", "153022.815000", "153024.095000", "153025.375000", "153026.655000", "153027.935000", "153029.215000", "153030.495000", "153031.775000", "153033.055000", "153034.335000", "153035.615000", "153036.895000", "153038.175000", "153039.455000", "153040.735000", "153042.015000", "153043.295000", "153044.575000", "153045.855000", "153047.135000", "153048.415000", "153049.695000", "153050.975000", "153052.255000", "153053.535000", "153054.815000", "153056.095000", "153057.375000", "153058.655000", "153059.935000", "153101.215000", "153102.495000", "153103.775000", "153105.055000", "153106.335000", "153107.615000"],
      "ContentTime": ["152340.420000", "152340.423000", "152340.426000", "152340.429000", "152340.439000", "152340.447000", "152340.450000", "152340.453000", "152340.456000", "152340.459000", "152340.461000", "152340.464000", "152340.474000", "152340.476000", "152340.479000", "152340.482000", "152340.485000", "152340.489000", "152340.500000", "152340.503000", "152340.506000", "152340.508000", "152420.414000", "152420.417000", "152420.420000", "152420.423000", "152420.426000", "152420.429000", "152420.437000", "152420.439000", "152420.442000", "152420.445000", "152420.448000", "152420.451000", "152420.454000", "152420.457000", "152420.460000", "152420.463000", "152420.466000", "152420.469000", "152420.472000", "152420.475000", "152420.478000", "152420.481000", "152420.484000", "152420.486000", "152420.489000", "152420.492000", "152420.495000", "152420.498000", "152420.501000", "152420.504000", "152420.507000", "152420.510000", "152500.414000", "152500.417000", "152500.420000", "152500.423000", "152500.426000", "152500.430000", "152500.432000", "152500.436000", "152500.438000", "152500.441000", "152500.444000", "152500.447000", "152500.450000", "152500.453000", "152500.456000", "152500.459000", "152500.462000", "152500.465000", "152500.468000", "152500.473000", "152500.476000", "152500.479000", "152500.482000", "152500.485000", "152500.488000", "152500.490000", "152500.493000", "152500.496000", "152500.499000", "152500.502000", "152500.505000", "152540.415000", "152540.418000", "152540.421000", "152540.424000", "152540.427000", "152540.430000", "152540.433000", "152540.435000", "152540.438000", "152540.441000", "152540.444000", "152540.447000", "152540.450000", "152540.453000", "152540.456000", "152540.459000", "152540.461000", "152540.464000", "152540.467000", "152540.470000", "152540.473000", "152540.476000", "152540.479000", "152540.482000", "152540.485000", "152540.487000", "152540.490000", "152540.493000", "152540.496000", "152540.499000", "152540.502000", "152620.415000", "152620.418000", "152620.421000", "152620.424000", "152620.427000", "152620.430000", "152620.433000", "152620.436000", "152620.439000", "152620.442000", "152620.444000", "152620.458000", "152620.461000", "152620.464000", "152620.467000", "152620.470000", "152620.473000", "152620.476000", "152620.479000", "152620.482000", "152620.484000", "152620.487000", "152620.490000", "152620.493000", "152620.496000", "152620.499000", "152620.502000", "152620.505000", "152620.508000", "152620.511000", "152620.514000", "152700.414000", "152700.417000", "152700.420000", "152700.423000", "152700.426000", "152700.428000", "152700.431000", "152700.434000", "152700.437000", "152700.440000", "152700.443000", "152700.446000", "152700.449000", "152700.452000", "152700.455000", "152700.458000", "152700.461000", "152700.464000", "152700.466000", "152700.469000", "152700.472000", "152700.475000", "152700.478000", "152700.481000", "152700.484000", "152700.487000", "152700.490000", "152700.493000", "152700.496000", "152700.498000", "152700.501000", "152700.504000", "152740.415000", "152740.418000", "152740.421000", "152740.424000", "152740.427000", "152740.430000", "152740.433000", "152740.436000", "152740.439000", "152740.442000", "152740.445000", "152740.448000", "152740.451000", "152740.454000", "152740.457000", "152740.460000", "152740.462000", "152740.465000", "152740.468000", "152740.471000", "152740.474000", "152740.477000", "152740.480000", "152740.483000", "152740.486000", "152740.489000", "152740.492000", "152740.495000", "152740.498000", "152740.500000", "152740.503000", "152820.415000", "152820.418000", "152820.421000", "152820.424000", "152820.427000", "152820.430000", "152820.433000", "152820.436000", "152820.439000", "152820.442000", "152820.445000", "152820.448000", "152820.451000", "152820.454000", "152820.457000", "152820.460000", "152820.463000", "152820.466000", "152820.468000", "152820.472000", "152820.475000", "152820.477000", "152820.480000", "152820.483000", "152820.486000", "152820.489000", "152820.492000", "152820.495000", "152820.498000", "152820.501000", "152820.504000", "152900.414000", "152900.417000", "152900.420000", "152900.423000", "152900.426000", "152900.429000", "152900.439000", "152900.442000", "152900.445000", "152900.448000", "152900.451000", "152900.454000", "152900.457000", "152900.460000", "152900.463000", "152900.466000", "152900.469000", "152900.472000", "152900.475000", "152900.478000", "152900.481000", "152900.484000", "152900.487000", "152900.490000", "152900.493000", "152900.496000", "152900.499000", "152900.507000", "152900.510000", "152900.513000", "152900.516000", "152940.414000", "152940.417000", "152940.420000", "152940.423000", "152940.426000", "152940.429000", "152940.432000", "152940.435000", "152940.438000", "152940.441000", "152940.444000", "152940.447000", "152940.450000", "152940.453000", "152940.456000", "152940.459000", "152940.462000", "152940.465000", "152940.468000", "152940.471000", "152940.474000", "152940.476000", "152940.479000", "152940.483000", "152940.485000", "152940.488000", "152940.491000", "152940.494000", "152940.497000", "152940.500000", "152940.503000", "152940.506000", "153020.415000", "153020.418000", "153020.422000", "153020.425000", "153020.428000", "153020.431000", "153020.434000", "153020.437000", "153020.439000", "153020.443000", "153020.446000", "153020.448000", "153020.451000", "153020.454000", "153020.457000", "153020.476000", "153020.479000", "153020.482000", "153020.485000", "153020.488000", "153020.491000", "153020.494000", "153020.497000", "153020.500000", "153020.503000", "153020.506000", "153020.509000", "153020.511000", "153020.514000", "153020.517000", "153020.520000", "153100.414000", "153100.417000", "153100.420000", "153100.423000", "153100.426000", "153100.429000", "153100.432000", "153100.435000", "153100.438000", "153100.441000", "153100.444000", "153100.447000", "153100.450000", "153100.453000", "153100.456000", "153100.459000", "153100.462000", "153100.465000", "153100.468000", "153100.471000", "153100.474000", "153100.477000", "153100.480000", "153100.483000", "153100.486000", "153100.489000", "153100.492000", "153100.494000", "153100.497000", "153100.500000", "153100.503000", "153108.516000", "153108.519000", "153108.522000", "153108.526000", "153108.529000", "153108.531000", "153108.534000"],
      "InstanceCreationTime": ["152340.420000", "152340.423000", "152340.426000", "152340.429000", "152340.439000", "152340.447000", "152340.450000", "152340.453000", "152340.456000", "152340.459000", "152340.461000", "152340.464000", "152340.474000", "152340.476000", "152340.479000", "152340.482000", "152340.485000", "152340.489000", "152340.500000", "152340.503000", "152340.506000", "152340.508000", "152420.414000", "152420.417000", "152420.420000", "152420.423000", "152420.426000", "152420.429000", "152420.437000", "152420.439000", "152420.442000", "152420.445000", "152420.448000", "152420.451000", "152420.454000", "152420.457000", "152420.460000", "152420.463000", "152420.466000", "152420.469000", "152420.472000", "152420.475000", "152420.478000", "152420.481000", "152420.484000", "152420.486000", "152420.489000", "152420.492000", "152420.495000", "152420.498000", "152420.501000", "152420.504000", "152420.507000", "152420.510000", "152500.414000", "152500.417000", "152500.420000", "152500.423000", "152500.426000", "152500.430000", "152500.432000", "152500.436000", "152500.438000", "152500.441000", "152500.444000", "152500.447000", "152500.450000", "152500.453000", "152500.456000", "152500.459000", "152500.462000", "152500.465000", "152500.468000", "152500.473000", "152500.476000", "152500.479000", "152500.482000", "152500.485000", "152500.488000", "152500.490000", "152500.493000", "152500.496000", "152500.499000", "152500.502000", "152500.505000", "152540.415000", "152540.418000", "152540.421000", "152540.424000", "152540.427000", "152540.430000", "152540.433000", "152540.435000", "152540.438000", "152540.441000", "152540.444000", "152540.447000", "152540.450000", "152540.453000", "152540.456000", "152540.459000", "152540.461000", "152540.464000", "152540.467000", "152540.470000", "152540.473000", "152540.476000", "152540.479000", "152540.482000", "152540.485000", "152540.487000", "152540.490000", "152540.493000", "152540.496000", "152540.499000", "152540.502000", "152620.415000", "152620.418000", "152620.421000", "152620.424000", "152620.427000", "152620.430000", "152620.433000", "152620.436000", "152620.439000", "152620.442000", "152620.444000", "152620.458000", "152620.461000", "152620.464000", "152620.467000", "152620.470000", "152620.473000", "152620.476000", "152620.479000", "152620.482000", "152620.484000", "152620.487000", "152620.490000", "152620.493000", "152620.496000", "152620.499000", "152620.502000", "152620.505000", "152620.508000", "152620.511000", "152620.514000", "152700.414000", "152700.417000", "152700.420000", "152700.423000", "152700.426000", "152700.428000", "152700.431000", "152700.434000", "152700.437000", "152700.440000", "152700.443000", "152700.446000", "152700.449000", "152700.452000", "152700.455000", "152700.458000", "152700.461000", "152700.464000", "152700.466000", "152700.469000", "152700.472000", "152700.475000", "152700.478000", "152700.481000", "152700.484000", "152700.487000", "152700.490000", "152700.493000", "152700.496000", "152700.498000", "152700.501000", "152700.504000", "152740.415000", "152740.418000", "152740.421000", "152740.424000", "152740.427000", "152740.430000", "152740.433000", "152740.436000", "152740.439000", "152740.442000", "152740.445000", "152740.448000", "152740.451000", "152740.454000", "152740.457000", "152740.460000", "152740.462000", "152740.465000", "152740.468000", "152740.471000", "152740.474000", "152740.477000", "152740.480000", "152740.483000", "152740.486000", "152740.489000", "152740.492000", "152740.495000", "152740.498000", "152740.500000", "152740.503000", "152820.415000", "152820.418000", "152820.421000", "152820.424000", "152820.427000", "152820.430000", "152820.433000", "152820.436000", "152820.439000", "152820.442000", "152820.445000", "152820.448000", "152820.451000", "152820.454000", "152820.457000", "152820.460000", "152820.463000", "152820.466000", "152820.468000", "152820.472000", "152820.475000", "152820.477000", "152820.480000", "152820.483000", "152820.486000", "152820.489000", "152820.492000", "152820.495000", "152820.498000", "152820.501000", "152820.504000", "152900.414000", "152900.417000", "152900.420000", "152900.423000", "152900.426000", "152900.429000", "152900.439000", "152900.442000", "152900.445000", "152900.448000", "152900.451000", "152900.454000", "152900.457000", "152900.460000", "152900.463000", "152900.466000", "152900.469000", "152900.472000", "152900.475000", "152900.478000", "152900.481000", "152900.484000", "152900.487000", "152900.490000", "152900.493000", "152900.496000", "152900.499000", "152900.507000", "152900.510000", "152900.513000", "152900.516000", "152940.414000", "152940.417000", "152940.420000", "152940.423000", "152940.426000", "152940.429000", "152940.432000", "152940.435000", "152940.438000", "152940.441000", "152940.444000", "152940.447000", "152940.450000", "152940.453000", "152940.456000", "152940.459000", "152940.462000", "152940.465000", "152940.468000", "152940.471000", "152940.474000", "152940.476000", "152940.479000", "152940.483000", "152940.485000", "152940.488000", "152940.491000", "152940.494000", "152940.497000", "152940.500000", "152940.503000", "152940.506000", "153020.415000", "153020.418000", "153020.422000", "153020.425000", "153020.428000", "153020.431000", "153020.434000", "153020.437000", "153020.439000", "153020.443000", "153020.446000", "153020.448000", "153020.451000", "153020.454000", "153020.457000", "153020.476000", "153020.479000", "153020.482000", "153020.485000", "153020.488000", "153020.491000", "153020.494000", "153020.497000", "153020.500000", "153020.503000", "153020.506000", "153020.509000", "153020.511000", "153020.514000", "153020.517000", "153020.520000", "153100.414000", "153100.417000", "153100.420000", "153100.423000", "153100.426000", "153100.429000", "153100.432000", "153100.435000", "153100.438000", "153100.441000", "153100.444000", "153100.447000", "153100.450000", "153100.453000", "153100.456000", "153100.459000", "153100.462000", "153100.465000", "153100.468000", "153100.471000", "153100.474000", "153100.477000", "153100.480000", "153100.483000", "153100.486000", "153100.489000", "153100.492000", "153100.494000", "153100.497000", "153100.500000", "153100.503000", "153108.516000", "153108.519000", "153108.522000", "153108.526000", "153108.529000", "153108.531000", "153108.534000"],
      "InstanceNumber": [1, 2, 3, 4, 5, 6, 7, 8, 9, 10, 11, 12, 13, 14, 15, 16, 17, 18, 19, 20, 21, 22, 23, 24, 25, 26, 27, 28, 29, 30, 31, 32, 33, 34, 35, 36, 37, 38, 39, 40, 41, 42, 43, 44, 45, 46, 47, 48, 49, 50, 51, 52, 53, 54, 55, 56, 57, 58, 59, 60, 61, 62, 63, 64, 65, 66, 67, 68, 69, 70, 71, 72, 73, 74, 75, 76, 77, 78, 79, 80, 81, 82, 83, 84, 85, 86, 87, 88, 89, 90, 91, 92, 93, 94, 95, 96, 97, 98, 99, 100, 101, 102, 103, 104, 105, 106, 107, 108, 109, 110, 111, 112, 113, 114, 115, 116, 117, 118, 119, 120, 121, 122, 123, 124, 125, 126, 127, 128, 129, 130, 131, 132, 133, 134, 135, 136, 137, 138, 139, 140, 141, 142, 143, 144, 145, 146, 147, 148, 149, 150, 151, 152, 153, 154, 155, 156, 157, 158, 159, 160, 161, 162, 163, 164, 165, 166, 167, 168, 169, 170, 171, 172, 173, 174, 175, 176, 177, 178, 179, 180, 181, 182, 183, 184, 185, 186, 187, 188, 189, 190, 191, 192, 193, 194, 195, 196, 197, 198, 199, 200, 201, 202, 203, 204, 205, 206, 207, 208, 209, 210, 211, 212, 213, 214, 215, 216, 217, 218, 219, 220, 221, 222, 223, 224, 225, 226, 227, 228, 229, 230, 231, 232, 233, 234, 235, 236, 237, 238, 239, 240, 241, 242, 243, 244, 245, 246, 247, 248, 249, 250, 251, 252, 253, 254, 255, 256, 257, 258, 259, 260, 261, 262, 263, 264, 265, 266, 267, 268, 269, 270, 271, 272, 273, 274, 275, 276, 277, 278, 279, 280, 281, 282, 283, 284, 285, 286, 287, 288, 289, 290, 291, 292, 293, 294, 295, 296, 297, 298, 299, 300, 301, 302, 303, 304, 305, 306, 307, 308, 309, 310, 311, 312, 313, 314, 315, 316, 317, 318, 319, 320, 321, 322, 323, 324, 325, 326, 327, 328, 329, 330, 331, 332, 333, 334, 335, 336, 337, 338, 339, 340, 341, 342, 343, 344, 345, 346, 347, 348, 349, 350, 351, 352, 353, 354, 355, 356, 357, 358, 359, 360, 361, 362, 363, 364, 365, 366, 367, 368, 369, 370, 371, 372, 373],
