{
  "AcquisitionMatrixPE": 108,
  "AcquisitionNumber": 1,
  "AcquisitionTime": "15:11:49.965000",
  "BandwidthPerPixelPhaseEncode": 15.964,
  "BaseResolution": 108,
  "BodyPartExamined": "BRAIN",
  "ConsistencyInfo": "N4_VE11C_LATEST_20160120",
  "ConversionSoftware": "dcm2niix",
  "ConversionSoftwareVersion": "v1.0.20180622 GCC6.3.0",
  "DerivedVendorReportedEchoSpacing": 0.000580009,
  "DeviceSerialNumber": "66054",
  "DwellTime": 2.1e-06,
  "EchoTime": 0.031,
  "EchoTrainLength": 95,
  "EffectiveEchoSpacing": 0.000580009,
  "FlipAngle": 64,
  "ImageOrientationPatientDICOM": [0.99854, 0.0400721, -0.0362202, -0.0505839, 0.928913, -0.366826],
  "ImageType": [
    "ORIGINAL",
    "PRIMARY",
    "M",
    "ND",
    "MOSAIC"
],
  "InPlanePhaseEncodingDirectionDICOM": "COL",
  "InstitutionAddress": "Chemin_des_Mines_9_Geneve_District_CH_1211",
  "InstitutionName": "Fondation_Campus_Biotech_Geneva",
  "InstitutionalDepartmentName": "Department",
  "MRAcquisitionType": "2D",
  "MagneticFieldStrength": 3,
  "Manufacturer": "Siemens",
  "ManufacturersModelName": "Prisma",
  "Modality": "MR",
  "MultibandAccelerationFactor": 4,
  "PartialFourier": 0.875,
  "PatientPosition": "HFS",
  "PercentPhaseFOV": 100,
  "PhaseEncodingDirection": "j-",
  "PhaseEncodingSteps": 95,
  "PhaseResolution": 1,
  "PixelBandwidth": 2205,
  "ProcedureStepDescription": "J.DRM_Michael",
  "ProtocolName": "Run5_bold_s4_TR1.28",
  "PulseSequenceDetails": "%SiemensSeq%_ep2d_bold",
  "ReceiveCoilActiveElements": "HC1-7;NC1,2",
  "ReceiveCoilName": "HeadNeck_64",
  "ReconMatrixPE": 108,
  "RepetitionTime": 1.28,
  "SAR": 0.0936589,
  "ScanOptions": "PFP_FS",
  "ScanningSequence": "EP",
  "SequenceName": "_epfid2d1_108",
  "SequenceVariant": "SK",
  "SeriesDescription": "Run5_bold_s4_TR1.28",
  "SeriesNumber": 11,
  "ShimSetting": [-1271, -11688, 6340, 513, 160, -98, -120, 73],
  "SliceThickness": 2,
  "SliceTiming": [0.945, 0, 0.63, 0.08, 0.71, 0.1575, 0.7875, 0.2375, 0.8675, 0.395, 1.025, 0.4725, 1.1025, 0.5525, 1.1825, 0.315, 0.945, 0, 0.63, 0.08, 0.71, 0.1575, 0.7875, 0.2375, 0.8675, 0.395, 1.025, 0.4725, 1.1025, 0.5525, 1.1825, 0.315, 0.945, 0, 0.63, 0.08, 0.71, 0.1575, 0.7875, 0.2375, 0.8675, 0.395, 1.025, 0.4725, 1.1025, 0.5525, 1.1825, 0.315, 0.945, 0, 0.63, 0.08, 0.71, 0.1575, 0.7875, 0.2375, 0.8675, 0.395, 1.025, 0.4725, 1.1025, 0.5525, 1.1825, 0.315],
  "SoftwareVersions": "syngo_MR_E11",
  "SpacingBetweenSlices": 2,
  "StationName": "AWP66054",
  "TaskName": "main",
  "TotalReadoutTime": 0.0620609,
  "TxRefAmp": 254.311,
  "dcmmeta_affine": [
    [-1.9878344535827637, -0.10069940984249115, -0.03789191693067551, 111.71354675292969],
    [-0.07977320998907089, 1.8492258787155151, -0.7362446188926697, -68.24689483642578],
    [-0.0721050500869751, 0.7302548289299011, 1.8591686487197876, -80.78678894042969],
    [0.0, 0.0, 0.0, 1.0]
],
  "dcmmeta_reorient_transform": [
    [0.0, -1.0, 0.0, 107.0],
    [1.0, 0.0, 0.0, 0.0],
    [0.0, 0.0, 1.0, 0.0],
    [0.0, 0.0, 0.0, 1.0]
],
  "dcmmeta_shape": [108, 108, 64, 373],
  "dcmmeta_slice_dim": 2,
  "dcmmeta_version": 0.6,
  "global": {
    "const": {
      "AccessionNumber": "",
      "AcquisitionMatrix": [108, 0, 0, 108],
      "AngioFlag": "N",
      "BitsAllocated": 16,
      "BitsStored": 12,
      "BodyPartExamined": "BRAIN",
      "Columns": 864,
      "EchoNumbers": 1,
      "EchoTime": 31.0,
      "EchoTrainLength": 95,
      "FlipAngle": 64.0,
      "HighBit": 11,
      "ImageOrientationPatient": [0.99854009487002, 0.04007212444639, -0.0362202123037, -0.0505838868389, 0.92891344772033, -0.3668256766321],
      "ImagePositionPatient": [-814.27577262283, -858.78193157122, 300.642515221],
      "ImageType": [
        "ORIGINAL",
        "PRIMARY",
        "M",
        "ND",
        "MOSAIC"
],
      "ImagedNucleus": "1H",
      "ImagingFrequency": 123.257512,
      "InPlanePhaseEncodingDirection": "COL",
      "MRAcquisitionType": "2D",
      "MagneticFieldStrength": 3.0,
      "Manufacturer": "SIEMENS",
      "ManufacturerModelName": "Prisma",
      "Modality": "MR",
      "NumberOfAverages": 1.0,
      "NumberOfPhaseEncodingSteps": 95,
      "PercentPhaseFieldOfView": 100.0,
      "PercentSampling": 100.0,
      "PerformedProcedureStepStartTime": "141638.689000",
      "PhotometricInterpretation": "MONOCHROME2",
      "PixelBandwidth": 2205.0,
      "PixelRepresentation": 0,
      "PixelSpacing": [1.990740776062, 1.990740776062],
      "PositionReferenceIndicator": "",
      "ProtocolName": "Run5_bold_s4_TR1.28",
      "RepetitionTime": 1280.0,
      "Rows": 864,
      "SAR": 0.09365889359988,
      "SamplesPerPixel": 1,
      "ScanOptions": [
        "PFP",
        "FS"
],
      "ScanningSequence": "EP",
      "SequenceName": "*epfid2d1_108",
      "SequenceVariant": "SK",
      "SeriesDescription": "Run5_bold_s4_TR1.28",
      "SeriesNumber": 11,
      "SeriesTime": "151225.636000",
      "SliceLocation": -52.091449003123,
      "SliceThickness": 2.0,
      "SmallestImagePixelValue": 0,
      "SoftwareVersions": "syngo MR E11",
      "SpacingBetweenSlices": 2.0000000430781,
      "SpecificCharacterSet": "ISO_IR 100",
      "StudyID": "1",
      "StudyTime": "141638.630000",
      "TransmitCoilName": "Body",
      "VariableFlipAngleFlag": "N",
      "WindowCenterWidthExplanation": "Algo1",
      "dBdt": 0.0},
    "slices": {}
  },
  "time": {
    "samples": {
      "AcquisitionNumber": [1, 2, 3, 4, 5, 6, 7, 8, 9, 10, 11, 12, 13, 14, 15, 16, 17, 18, 19, 20, 21, 22, 23, 24, 25, 26, 27, 28, 29, 30, 31, 32, 33, 34, 35, 36, 37, 38, 39, 40, 41, 42, 43, 44, 45, 46, 47, 48, 49, 50, 51, 52, 53, 54, 55, 56, 57, 58, 59, 60, 61, 62, 63, 64, 65, 66, 67, 68, 69, 70, 71, 72, 73, 74, 75, 76, 77, 78, 79, 80, 81, 82, 83, 84, 85, 86, 87, 88, 89, 90, 91, 92, 93, 94, 95, 96, 97, 98, 99, 100, 101, 102, 103, 104, 105, 106, 107, 108, 109, 110, 111, 112, 113, 114, 115, 116, 117, 118, 119, 120, 121, 122, 123, 124, 125, 126, 127, 128, 129, 130, 131, 132, 133, 134, 135, 136, 137, 138, 139, 140, 141, 142, 143, 144, 145, 146, 147, 148, 149, 150, 151, 152, 153, 154, 155, 156, 157, 158, 159, 160, 161, 162, 163, 164, 165, 166, 167, 168, 169, 170, 171, 172, 173, 174, 175, 176, 177, 178, 179, 180, 181, 182, 183, 184, 185, 186, 187, 188, 189, 190, 191, 192, 193, 194, 195, 196, 197, 198, 199, 200, 201, 202, 203, 204, 205, 206, 207, 208, 209, 210, 211, 212, 213, 214, 215, 216, 217, 218, 219, 220, 221, 222, 223, 224, 225, 226, 227, 228, 229, 230, 231, 232, 233, 234, 235, 236, 237, 238, 239, 240, 241, 242, 243, 244, 245, 246, 247, 248, 249, 250, 251, 252, 253, 254, 255, 256, 257, 258, 259, 260, 261, 262, 263, 264, 265, 266, 267, 268, 269, 270, 271, 272, 273, 274, 275, 276, 277, 278, 279, 280, 281, 282, 283, 284, 285, 286, 287, 288, 289, 290, 291, 292, 293, 294, 295, 296, 297, 298, 299, 300, 301, 302, 303, 304, 305, 306, 307, 308, 309, 310, 311, 312, 313, 314, 315, 316, 317, 318, 319, 320, 321, 322, 323, 324, 325, 326, 327, 328, 329, 330, 331, 332, 333, 334, 335, 336, 337, 338, 339, 340, 341, 342, 343, 344, 345, 346, 347, 348, 349, 350, 351, 352, 353, 354, 355, 356, 357, 358, 359, 360, 361, 362, 363, 364, 365, 366, 367, 368, 369, 370, 371, 372, 373],
      "AcquisitionTime": ["151149.965000", "151151.245000", "151152.525000", "151153.805000", "151155.085000", "151156.365000", "151157.645000", "151158.925000", "151200.205000", "151201.485000", "151202.765000", "151204.045000", "151205.325000", "151206.605000", "151207.885000", "151209.165000", "151210.445000", "151211.725000", "151213.005000", "151214.285000", "151215.565000", "151216.845000", "151218.125000", "151219.405000", "151220.685000", "151221.965000", "151223.245000", "151224.525000", "151225.805000", "151227.085000", "151228.365000", "151229.645000", "151230.925000", "151232.205000", "151233.485000", "151234.765000", "151236.045000", "151237.325000", "151238.605000", "151239.885000", "151241.165000", "151242.445000", "151243.725000", "151245.005000", "151246.285000", "151247.565000", "151248.845000", "151250.125000", "151251.405000", "151252.685000", "151253.965000", "151255.245000", "151256.525000", "151257.805000", "151259.085000", "151300.365000", "151301.645000", "151302.925000", "151304.205000", "151305.485000", "151306.765000", "151308.045000", "151309.325000", "151310.605000", "151311.885000", "151313.165000", "151314.445000", "151315.725000", "151317.005000", "151318.285000", "151319.565000", "151320.845000", "151322.125000", "151323.405000", "151324.685000", "151325.965000", "151327.245000", "151328.525000", "151329.805000", "151331.085000", "151332.365000", "151333.645000", "151334.925000", "151336.205000", "151337.485000", "151338.765000", "151340.045000", "151341.325000", "151342.605000", "151343.885000", "151345.165000", "151346.445000", "151347.725000", "151349.005000", "151350.285000", "151351.565000", "151352.845000", "151354.125000", "151355.405000", "151356.685000", "151357.965000", "151359.245000", "151400.525000", "151401.805000", "151403.085000", "151404.365000", "151405.645000", "151406.925000", "151408.205000", "151409.485000", "151410.765000", "151412.045000", "151413.325000", "151414.605000", "151415.885000", "151417.165000", "151418.445000", "151419.725000", "151421.005000", "151422.285000", "151423.565000", "151424.845000", "151426.125000", "151427.405000", "151428.685000", "151429.965000", "151431.245000", "151432.525000", "151433.805000", "151435.085000", "151436.365000", "151437.645000", "151438.925000", "151440.205000", "151441.485000", "151442.765000", "151444.045000", "151445.325000", "151446.605000", "151447.885000", "151449.165000", "151450.445000", "151451.725000", "151453.005000", "151454.285000", "151455.565000", "151456.845000", "151458.125000", "151459.405000", "151500.685000", "151501.965000", "151503.245000", "151504.525000", "151505.805000", "151507.085000", "151508.365000", "151509.645000", "151510.925000", "151512.205000", "151513.485000", "151514.765000", "151516.045000", "151517.325000", "151518.605000", "151519.885000", "151521.165000", "151522.445000", "151523.725000", "151525.005000", "151526.285000", "151527.565000", "151528.845000", "151530.125000", "151531.405000", "151532.685000", "151533.965000", "151535.245000", "151536.525000", "151537.805000", "151539.085000", "151540.365000", "151541.645000", "151542.925000", "151544.205000", "151545.485000", "151546.765000", "151548.045000", "151549.325000", "151550.605000", "151551.885000", "151553.165000", "151554.445000", "151555.725000", "151557.005000", "151558.285000", "151559.565000", "151600.845000", "151602.125000", "151603.405000", "151604.685000", "151605.965000", "151607.245000", "151608.525000", "151609.805000", "151611.085000", "151612.365000", "151613.645000", "151614.925000", "151616.205000", "151617.485000", "151618.765000", "151620.045000", "151621.325000", "151622.605000", "151623.885000", "151625.165000", "151626.445000", "151627.725000", "151629.005000", "151630.285000", "151631.565000", "151632.845000", "151634.125000", "151635.405000", "151636.685000", "151637.965000", "151639.245000", "151640.525000", "151641.805000", "151643.085000", "151644.365000", "151645.645000", "151646.925000", "151648.205000", "151649.485000", "151650.765000", "151652.045000", "151653.325000", "151654.605000", "151655.885000", "151657.165000", "151658.445000", "151659.725000", "151701.005000", "151702.285000", "151703.565000", "151704.845000", "151706.125000", "151707.405000", "151708.685000", "151709.965000", "151711.245000", "151712.525000", "151713.805000", "151715.085000", "151716.365000", "151717.645000", "151718.925000", "151720.205000", "151721.485000", "151722.765000", "151724.045000", "151725.325000", "151726.605000", "151727.885000", "151729.165000", "151730.445000", "151731.725000", "151733.005000", "151734.285000", "151735.565000", "151736.845000", "151738.125000", "151739.405000", "151740.685000", "151741.965000", "151743.245000", "151744.525000", "151745.805000", "151747.085000", "151748.365000", "151749.645000", "151750.925000", "151752.205000", "151753.485000", "151754.765000", "151756.045000", "151757.325000", "151758.605000", "151759.885000", "151801.165000", "151802.445000", "151803.725000", "151805.005000", "151806.285000", "151807.565000", "151808.845000", "151810.125000", "151811.405000", "151812.685000", "151813.965000", "151815.245000", "151816.525000", "151817.805000", "151819.085000", "151820.365000", "151821.645000", "151822.925000", "151824.205000", "151825.485000", "151826.765000", "151828.045000", "151829.325000", "151830.605000", "151831.885000", "151833.165000", "151834.445000", "151835.725000", "151837.005000", "151838.285000", "151839.565000", "151840.845000", "151842.125000", "151843.405000", "151844.685000", "151845.965000", "151847.245000", "151848.525000", "151849.805000", "151851.085000", "151852.365000", "151853.645000", "151854.925000", "151856.205000", "151857.485000", "151858.765000", "151900.045000", "151901.325000", "151902.605000", "151903.885000", "151905.165000", "151906.445000", "151907.725000", "151909.005000", "151910.285000", "151911.565000", "151912.845000", "151914.125000", "151915.405000", "151916.685000", "151917.965000", "151919.245000", "151920.525000", "151921.805000", "151923.085000", "151924.365000", "151925.645000", "151926.925000", "151928.205000", "151929.485000", "151930.765000", "151932.045000", "151933.325000", "151934.605000", "151935.885000", "151937.165000", "151938.445000", "151939.725000", "151941.005000", "151942.285000", "151943.565000", "151944.845000", "151946.125000"],
      "ContentTime": ["151225.640000", "151225.643000", "151225.646000", "151225.649000", "151225.652000", "151225.655000", "151225.658000", "151225.669000", "151225.671000", "151225.674000", "151225.677000", "151225.680000", "151225.683000", "151225.686000", "151225.689000", "151225.692000", "151225.695000", "151225.698000", "151225.701000", "151225.704000", "151225.707000", "151225.710000", "151225.713000", "151225.716000", "151225.718000", "151225.721000", "151225.724000", "151305.635000", "151305.639000", "151305.667000", "151305.671000", "151305.673000", "151305.676000", "151305.679000", "151305.682000", "151305.685000", "151305.688000", "151305.691000", "151305.694000", "151305.697000", "151305.700000", "151305.706000", "151305.710000", "151305.713000", "151305.716000", "151305.719000", "151305.722000", "151305.725000", "151305.728000", "151305.731000", "151305.734000", "151305.737000", "151305.739000", "151305.742000", "151305.745000", "151305.748000", "151305.751000", "151305.754000", "151345.635000", "151345.638000", "151345.641000", "151345.644000", "151345.647000", "151345.650000", "151345.653000", "151345.656000", "151345.659000", "151345.662000", "151345.665000", "151345.668000", "151345.671000", "151345.674000", "151345.676000", "151345.679000", "151345.682000", "151345.685000", "151345.688000", "151345.691000", "151345.694000", "151345.697000", "151345.700000", "151345.703000", "151345.706000", "151345.709000", "151345.712000", "151345.715000", "151345.718000", "151345.721000", "151345.724000", "151345.727000", "151425.635000", "151425.638000", "151425.641000", "151425.644000", "151425.647000", "151425.650000", "151425.653000", "151425.656000", "151425.659000", "151425.662000", "151425.664000", "151425.667000", "151425.670000", "151425.673000", "151425.676000", "151425.679000", "151425.682000", "151425.685000", "151425.688000", "151425.691000", "151425.694000", "151425.696000", "151425.699000", "151425.702000", "151425.705000", "151425.721000", "151425.724000", "151425.727000", "151425.730000", "151425.732000", "151425.735000", "151505.635000", "151505.638000", "151505.641000", "151505.644000", "151505.647000", "151505.650000", "151505.653000", "151505.656000", "151505.659000", "151505.662000", "151505.665000", "151505.668000", "151505.671000", "151505.674000", "151505.677000", "151505.680000", "151505.683000", "151505.685000", "151505.688000", "151505.691000", "151505.694000", "151505.697000", "151505.700000", "151505.703000", "151505.706000", "151505.709000", "151505.712000", "151505.715000", "151505.718000", "151505.721000", "151505.724000", "151545.635000", "151545.638000", "151545.641000", "151545.644000", "151545.647000", "151545.650000", "151545.653000", "151545.655000", "151545.658000", "151545.661000", "151545.664000", "151545.667000", "151545.670000", "151545.673000", "151545.676000", "151545.679000", "151545.682000", "151545.685000", "151545.687000", "151545.690000", "151545.693000", "151545.696000", "151545.699000", "151545.702000", "151545.705000", "151545.709000", "151545.712000", "151545.715000", "151545.718000", "151545.720000", "151545.723000", "151545.726000", "151625.635000", "151625.638000", "151625.641000", "151625.644000", "151625.647000", "151625.650000", "151625.653000", "151625.656000", "151625.658000", "151625.661000", "151625.664000", "151625.667000", "151625.670000", "151625.673000", "151625.676000", "151625.679000", "151625.682000", "151625.685000", "151625.688000", "151625.690000", "151625.693000", "151625.696000", "151625.699000", "151625.702000", "151625.705000", "151625.708000", "151625.711000", "151625.714000", "151625.717000", "151625.720000", "151625.723000", "151705.635000", "151705.638000", "151705.641000", "151705.644000", "151705.647000", "151705.650000", "151705.653000", "151705.656000", "151705.659000", "151705.662000", "151705.665000", "151705.668000", "151705.671000", "151705.673000", "151705.676000", "151705.679000", "151705.682000", "151705.685000", "151705.688000", "151705.691000", "151705.694000", "151705.697000", "151705.699000", "151705.702000", "151705.705000", "151705.708000", "151705.711000", "151705.714000", "151705.717000", "151705.720000", "151705.723000", "151745.635000", "151745.638000", "151745.646000", "151745.649000", "151745.652000", "151745.655000", "151745.658000", "151745.661000", "151745.664000", "151745.667000", "151745.670000", "151745.672000", "151745.675000", "151745.678000", "151745.681000", "151745.684000", "151745.687000", "151745.690000", "151745.693000", "151745.696000", "151745.699000", "151745.701000", "151745.704000", "151745.707000", "151745.710000", "151745.713000", "151745.716000", "151745.719000", "151745.722000", "151745.725000", "151745.728000", "151805.635000", "151805.638000", "151805.641000", "151805.644000", "151805.647000", "151805.650000", "151805.653000", "151805.656000", "151805.659000", "151805.662000", "151805.665000", "151805.668000", "151805.671000", "151805.674000", "151805.676000", "151805.679000", "151845.635000", "151845.638000", "151845.641000", "151845.644000", "151845.647000", "151845.650000", "151845.653000", "151845.656000", "151845.659000", "151845.662000", "151845.664000", "151845.667000", "151845.670000", "151845.690000", "151845.693000", "151845.696000", "151845.698000", "151845.701000", "151845.715000", "151845.718000", "151845.721000", "151845.724000", "151845.727000", "151845.730000", "151845.733000", "151845.736000", "151845.739000", "151845.742000", "151845.745000", "151845.748000", "151845.751000", "151925.635000", "151925.638000", "151925.641000", "151925.644000", "151925.647000", "151925.650000", "151925.653000", "151925.656000", "151925.659000", "151925.662000", "151925.665000", "151925.668000", "151925.671000", "151925.674000", "151925.677000", "151925.680000", "151925.683000", "151925.686000", "151925.689000", "151925.692000", "151925.694000", "151925.697000", "151925.700000", "151925.703000", "151925.706000", "151925.709000", "151925.712000", "151925.715000", "151925.718000", "151925.721000", "151925.724000", "151947.535000", "151947.538000", "151947.544000", "151947.548000", "151947.551000", "151947.554000", "151947.556000", "151947.559000", "151947.562000", "151947.565000", "151947.568000", "151947.571000", "151947.574000", "151947.577000", "151947.580000", "151947.583000", "151947.586000", "151947.589000"],
      "InstanceCreationTime": ["151225.640000", "151225.643000", "151225.646000", "151225.649000", "151225.652000", "151225.655000", "151225.658000", "151225.669000", "151225.671000", "151225.674000", "151225.677000", "151225.680000", "151225.683000", "151225.686000", "151225.689000", "151225.692000", "151225.695000", "151225.698000", "151225.701000", "151225.704000", "151225.707000", "151225.710000", "151225.713000", "151225.716000", "151225.718000", "151225.721000", "151225.724000", "151305.635000", "151305.639000", "151305.667000", "151305.671000", "151305.673000", "151305.676000", "151305.679000", "151305.682000", "151305.685000", "151305.688000", "151305.691000", "151305.694000", "151305.697000", "151305.700000", "151305.706000", "151305.710000", "151305.713000", "151305.716000", "151305.719000", "151305.722000", "151305.725000", "151305.728000", "151305.731000", "151305.734000", "151305.737000", "151305.739000", "151305.742000", "151305.745000", "151305.748000", "151305.751000", "151305.754000", "151345.635000", "151345.638000", "151345.641000", "151345.644000", "151345.647000", "151345.650000", "151345.653000", "151345.656000", "151345.659000", "151345.662000", "151345.665000", "151345.668000", "151345.671000", "151345.674000", "151345.676000", "151345.679000", "151345.682000", "151345.685000", "151345.688000", "151345.691000", "151345.694000", "151345.697000", "151345.700000", "151345.703000", "151345.706000", "151345.709000", "151345.712000", "151345.715000", "151345.718000", "151345.721000", "151345.724000", "151345.727000", "151425.635000", "151425.638000", "151425.641000", "151425.644000", "151425.647000", "151425.650000", "151425.653000", "151425.656000", "151425.659000", "151425.662000", "151425.664000", "151425.667000", "151425.670000", "151425.673000", "151425.676000", "151425.679000", "151425.682000", "151425.685000", "151425.688000", "151425.691000", "151425.694000", "151425.696000", "151425.699000", "151425.702000", "151425.705000", "151425.721000", "151425.724000", "151425.727000", "151425.730000", "151425.732000", "151425.735000", "151505.635000", "151505.638000", "151505.641000", "151505.644000", "151505.647000", "151505.650000", "151505.653000", "151505.656000", "151505.659000", "151505.662000", "151505.665000", "151505.668000", "151505.671000", "151505.674000", "151505.677000", "151505.680000", "151505.683000", "151505.685000", "151505.688000", "151505.691000", "151505.694000", "151505.697000", "151505.700000", "151505.703000", "151505.706000", "151505.709000", "151505.712000", "151505.715000", "151505.718000", "151505.721000", "151505.724000", "151545.635000", "151545.638000", "151545.641000", "151545.644000", "151545.647000", "151545.650000", "151545.653000", "151545.655000", "151545.658000", "151545.661000", "151545.664000", "151545.667000", "151545.670000", "151545.673000", "151545.676000", "151545.679000", "151545.682000", "151545.685000", "151545.687000", "151545.690000", "151545.693000", "151545.696000", "151545.699000", "151545.702000", "151545.705000", "151545.709000", "151545.712000", "151545.715000", "151545.718000", "151545.720000", "151545.723000", "151545.726000", "151625.635000", "151625.638000", "151625.641000", "151625.644000", "151625.647000", "151625.650000", "151625.653000", "151625.656000", "151625.658000", "151625.661000", "151625.664000", "151625.667000", "151625.670000", "151625.673000", "151625.676000", "151625.679000", "151625.682000", "151625.685000", "151625.688000", "151625.690000", "151625.693000", "151625.696000", "151625.699000", "151625.702000", "151625.705000", "151625.708000", "151625.711000", "151625.714000", "151625.717000", "151625.720000", "151625.723000", "151705.635000", "151705.638000", "151705.641000", "151705.644000", "151705.647000", "151705.650000", "151705.653000", "151705.656000", "151705.659000", "151705.662000", "151705.665000", "151705.668000", "151705.671000", "151705.673000", "151705.676000", "151705.679000", "151705.682000", "151705.685000", "151705.688000", "151705.691000", "151705.694000", "151705.697000", "151705.699000", "151705.702000", "151705.705000", "151705.708000", "151705.711000", "151705.714000", "151705.717000", "151705.720000", "151705.723000", "151745.635000", "151745.638000", "151745.646000", "151745.649000", "151745.652000", "151745.655000", "151745.658000", "151745.661000", "151745.664000", "151745.667000", "151745.670000", "151745.672000", "151745.675000", "151745.678000", "151745.681000", "151745.684000", "151745.687000", "151745.690000", "151745.693000", "151745.696000", "151745.699000", "151745.701000", "151745.704000", "151745.707000", "151745.710000", "151745.713000", "151745.716000", "151745.719000", "151745.722000", "151745.725000", "151745.728000", "151805.635000", "151805.638000", "151805.641000", "151805.644000", "151805.647000", "151805.650000", "151805.653000", "151805.656000", "151805.659000", "151805.662000", "151805.665000", "151805.668000", "151805.671000", "151805.674000", "151805.676000", "151805.679000", "151845.635000", "151845.638000", "151845.641000", "151845.644000", "151845.647000", "151845.650000", "151845.653000", "151845.656000", "151845.659000", "151845.662000", "151845.664000", "151845.667000", "151845.670000", "151845.690000", "151845.693000", "151845.696000", "151845.698000", "151845.701000", "151845.715000", "151845.718000", "151845.721000", "151845.724000", "151845.727000", "151845.730000", "151845.733000", "151845.736000", "151845.739000", "151845.742000", "151845.745000", "151845.748000", "151845.751000", "151925.635000", "151925.638000", "151925.641000", "151925.644000", "151925.647000", "151925.650000", "151925.653000", "151925.656000", "151925.659000", "151925.662000", "151925.665000", "151925.668000", "151925.671000", "151925.674000", "151925.677000", "151925.680000", "151925.683000", "151925.686000", "151925.689000", "151925.692000", "151925.694000", "151925.697000", "151925.700000", "151925.703000", "151925.706000", "151925.709000", "151925.712000", "151925.715000", "151925.718000", "151925.721000", "151925.724000", "151947.535000", "151947.538000", "151947.544000", "151947.548000", "151947.551000", "151947.554000", "151947.556000", "151947.559000", "151947.562000", "151947.565000", "151947.568000", "151947.571000", "151947.574000", "151947.577000", "151947.580000", "151947.583000", "151947.586000", "151947.589000"],
      "InstanceNumber": [1, 2, 3, 4, 5, 6, 7, 8, 9, 10, 11, 12, 13, 14, 15, 16, 17, 18, 19, 20, 21, 22, 23, 24, 25, 26, 27, 28, 29, 30, 31, 32, 33, 34, 35, 36, 37, 38, 39, 40, 41, 42, 43, 44, 45, 46, 47, 48, 49, 50, 51, 52, 53, 54, 55, 56, 57, 58, 59, 60, 61, 62, 63, 64, 65, 66, 67, 68, 69, 70, 71, 72, 73, 74, 75, 76, 77, 78, 79, 80, 81, 82, 83, 84, 85, 86, 87, 88, 89, 90, 91, 92, 93, 94, 95, 96, 97, 98, 99, 100, 101, 102, 103, 104, 105, 106, 107, 108, 109, 110, 111, 112, 113, 114, 115, 116, 117, 118, 119, 120, 121, 122, 123, 124, 125, 126, 127, 128, 129, 130, 131, 132, 133, 134, 135, 136, 137, 138, 139, 140, 141, 142, 143, 144, 145, 146, 147, 148, 149, 150, 151, 152, 153, 154, 155, 156, 157, 158, 159, 160, 161, 162, 163, 164, 165, 166, 167, 168, 169, 170, 171, 172, 173, 174, 175, 176, 177, 178, 179, 180, 181, 182, 183, 184, 185, 186, 187, 188, 189, 190, 191, 192, 193, 194, 195, 196, 197, 198, 199, 200, 201, 202, 203, 204, 205, 206, 207, 208, 209, 210, 211, 212, 213, 214, 215, 216, 217, 218, 219, 220, 221, 222, 223, 224, 225, 226, 227, 228, 229, 230, 231, 232, 233, 234, 235, 236, 237, 238, 239, 240, 241, 242, 243, 244, 245, 246, 247, 248, 249, 250, 251, 252, 253, 254, 255, 256, 257, 258, 259, 260, 261, 262, 263, 264, 265, 266, 267, 268, 269, 270, 271, 272, 273, 274, 275, 276, 277, 278, 279, 280, 281, 282, 283, 284, 285, 286, 287, 288, 289, 290, 291, 292, 293, 294, 295, 296, 297, 298, 299, 300, 301, 302, 303, 304, 305, 306, 307, 308, 309, 310, 311, 312, 313, 314, 315, 316, 317, 318, 319, 320, 321, 322, 323, 324, 325, 326, 327, 328, 329, 330, 331, 332, 333, 334, 335, 336, 337, 338, 339, 340, 341, 342, 343, 344, 345, 346, 347, 348, 349, 350, 351, 352, 353, 354, 355, 356, 357, 358, 359, 360, 361, 362, 363, 364, 365, 366, 367, 368, 369, 370, 371, 372, 373],
