{
  "AcquisitionMatrixPE": 108,
  "AcquisitionNumber": 1,
  "AcquisitionTime": "14:46:45.575000",
  "BandwidthPerPixelPhaseEncode": 15.964,
  "BaseResolution": 108,
  "BodyPartExamined": "BRAIN",
  "ConsistencyInfo": "N4_VE11C_LATEST_20160120",
  "ConversionSoftware": "dcm2niix",
  "ConversionSoftwareVersion": "v1.0.20180622 GCC6.3.0",
  "DerivedVendorReportedEchoSpacing": 0.000580009,
  "DeviceSerialNumber": "66054",
  "DwellTime": 2.1e-06,
  "EchoTime": 0.031,
  "EchoTrainLength": 95,
  "EffectiveEchoSpacing": 0.000580009,
  "FlipAngle": 64,
  "ImageOrientationPatientDICOM": [0.99854, 0.0400721, -0.0362202, -0.0505839, 0.928913, -0.366826],
  "ImageType": [
    "ORIGINAL",
    "PRIMARY",
    "M",
    "ND",
    "MOSAIC"
],
  "InPlanePhaseEncodingDirectionDICOM": "COL",
  "InstitutionAddress": "Chemin_des_Mines_9_Geneve_District_CH_1211",
  "InstitutionName": "Fondation_Campus_Biotech_Geneva",
  "InstitutionalDepartmentName": "Department",
  "MRAcquisitionType": "2D",
  "MagneticFieldStrength": 3,
  "Manufacturer": "Siemens",
  "ManufacturersModelName": "Prisma",
  "Modality": "MR",
  "MultibandAccelerationFactor": 4,
  "PartialFourier": 0.875,
  "PatientPosition": "HFS",
  "PercentPhaseFOV": 100,
  "PhaseEncodingDirection": "j-",
  "PhaseEncodingSteps": 95,
  "PhaseResolution": 1,
  "PixelBandwidth": 2205,
  "ProcedureStepDescription": "J.DRM_Michael",
  "ProtocolName": "Run3_bold_s4_TR1.28",
  "PulseSequenceDetails": "%SiemensSeq%_ep2d_bold",
  "ReceiveCoilActiveElements": "HC1-7;NC1,2",
  "ReceiveCoilName": "HeadNeck_64",
  "ReconMatrixPE": 108,
  "RepetitionTime": 1.28,
  "SAR": 0.0936589,
  "ScanOptions": "PFP_FS",
  "ScanningSequence": "EP",
  "SequenceName": "_epfid2d1_108",
  "SequenceVariant": "SK",
  "SeriesDescription": "Run3_bold_s4_TR1.28",
  "SeriesNumber": 8,
  "ShimSetting": [-1271, -11688, 6340, 513, 160, -98, -120, 73],
  "SliceThickness": 2,
  "SliceTiming": [0.945, 0, 0.63, 0.0775, 0.7075, 0.1575, 0.7875, 0.235, 0.865, 0.3925, 1.0225, 0.4725, 1.1025, 0.55, 1.18, 0.315, 0.945, 0, 0.63, 0.0775, 0.7075, 0.1575, 0.7875, 0.235, 0.865, 0.3925, 1.0225, 0.4725, 1.1025, 0.55, 1.18, 0.315, 0.945, 0, 0.63, 0.0775, 0.7075, 0.1575, 0.7875, 0.235, 0.865, 0.3925, 1.0225, 0.4725, 1.1025, 0.55, 1.18, 0.315, 0.945, 0, 0.63, 0.0775, 0.7075, 0.1575, 0.7875, 0.235, 0.865, 0.3925, 1.0225, 0.4725, 1.1025, 0.55, 1.18, 0.315],
  "SoftwareVersions": "syngo_MR_E11",
  "SpacingBetweenSlices": 2,
  "StationName": "AWP66054",
  "TaskName": "main",
  "TotalReadoutTime": 0.0620609,
  "TxRefAmp": 254.311,
  "dcmmeta_affine": [
    [-1.9878344535827637, -0.10069940984249115, -0.03789191693067551, 111.71354675292969],
    [-0.07977320998907089, 1.8492258787155151, -0.7362446188926697, -68.24689483642578],
    [-0.0721050500869751, 0.7302548289299011, 1.8591686487197876, -80.78678894042969],
    [0.0, 0.0, 0.0, 1.0]
],
  "dcmmeta_reorient_transform": [
    [0.0, -1.0, 0.0, 107.0],
    [1.0, 0.0, 0.0, 0.0],
    [0.0, 0.0, 1.0, 0.0],
    [0.0, 0.0, 0.0, 1.0]
],
  "dcmmeta_shape": [108, 108, 64, 373],
  "dcmmeta_slice_dim": 2,
  "dcmmeta_version": 0.6,
  "global": {
    "const": {
      "AccessionNumber": "",
      "AcquisitionMatrix": [108, 0, 0, 108],
      "AngioFlag": "N",
      "BitsAllocated": 16,
      "BitsStored": 12,
      "BodyPartExamined": "BRAIN",
      "Columns": 864,
      "EchoNumbers": 1,
      "EchoTime": 31.0,
      "EchoTrainLength": 95,
      "FlipAngle": 64.0,
      "HighBit": 11,
      "ImageOrientationPatient": [0.99854009487002, 0.04007212444639, -0.0362202123037, -0.0505838868389, 0.92891344772033, -0.3668256766321],
      "ImagePositionPatient": [-814.27577262283, -858.78193157122, 300.642515221],
      "ImageType": [
        "ORIGINAL",
        "PRIMARY",
        "M",
        "ND",
        "MOSAIC"
],
      "ImagedNucleus": "1H",
      "ImagingFrequency": 123.2575,
      "InPlanePhaseEncodingDirection": "COL",
      "MRAcquisitionType": "2D",
      "MagneticFieldStrength": 3.0,
      "Manufacturer": "SIEMENS",
      "ManufacturerModelName": "Prisma",
      "Modality": "MR",
      "NumberOfAverages": 1.0,
      "NumberOfPhaseEncodingSteps": 95,
      "PercentPhaseFieldOfView": 100.0,
      "PercentSampling": 100.0,
      "PerformedProcedureStepStartTime": "141638.689000",
      "PhotometricInterpretation": "MONOCHROME2",
      "PixelBandwidth": 2205.0,
      "PixelRepresentation": 0,
      "PixelSpacing": [1.990740776062, 1.990740776062],
      "PositionReferenceIndicator": "",
      "ProtocolName": "Run3_bold_s4_TR1.28",
      "RepetitionTime": 1280.0,
      "Rows": 864,
      "SAR": 0.09365889359988,
      "SamplesPerPixel": 1,
      "ScanOptions": [
        "PFP",
        "FS"
],
      "ScanningSequence": "EP",
      "SequenceName": "*epfid2d1_108",
      "SequenceVariant": "SK",
      "SeriesDescription": "Run3_bold_s4_TR1.28",
      "SeriesNumber": 8,
      "SeriesTime": "144725.650000",
      "SliceLocation": -52.091449003123,
      "SliceThickness": 2.0,
      "SmallestImagePixelValue": 0,
      "SoftwareVersions": "syngo MR E11",
      "SpacingBetweenSlices": 2.0000000430781,
      "SpecificCharacterSet": "ISO_IR 100",
      "StudyID": "1",
      "StudyTime": "141638.630000",
      "TransmitCoilName": "Body",
      "VariableFlipAngleFlag": "N",
      "WindowCenterWidthExplanation": "Algo1",
      "dBdt": 0.0},
    "slices": {}
  },
  "time": {
    "samples": {
      "AcquisitionNumber": [1, 2, 3, 4, 5, 6, 7, 8, 9, 10, 11, 12, 13, 14, 15, 16, 17, 18, 19, 20, 21, 22, 23, 24, 25, 26, 27, 28, 29, 30, 31, 32, 33, 34, 35, 36, 37, 38, 39, 40, 41, 42, 43, 44, 45, 46, 47, 48, 49, 50, 51, 52, 53, 54, 55, 56, 57, 58, 59, 60, 61, 62, 63, 64, 65, 66, 67, 68, 69, 70, 71, 72, 73, 74, 75, 76, 77, 78, 79, 80, 81, 82, 83, 84, 85, 86, 87, 88, 89, 90, 91, 92, 93, 94, 95, 96, 97, 98, 99, 100, 101, 102, 103, 104, 105, 106, 107, 108, 109, 110, 111, 112, 113, 114, 115, 116, 117, 118, 119, 120, 121, 122, 123, 124, 125, 126, 127, 128, 129, 130, 131, 132, 133, 134, 135, 136, 137, 138, 139, 140, 141, 142, 143, 144, 145, 146, 147, 148, 149, 150, 151, 152, 153, 154, 155, 156, 157, 158, 159, 160, 161, 162, 163, 164, 165, 166, 167, 168, 169, 170, 171, 172, 173, 174, 175, 176, 177, 178, 179, 180, 181, 182, 183, 184, 185, 186, 187, 188, 189, 190, 191, 192, 193, 194, 195, 196, 197, 198, 199, 200, 201, 202, 203, 204, 205, 206, 207, 208, 209, 210, 211, 212, 213, 214, 215, 216, 217, 218, 219, 220, 221, 222, 223, 224, 225, 226, 227, 228, 229, 230, 231, 232, 233, 234, 235, 236, 237, 238, 239, 240, 241, 242, 243, 244, 245, 246, 247, 248, 249, 250, 251, 252, 253, 254, 255, 256, 257, 258, 259, 260, 261, 262, 263, 264, 265, 266, 267, 268, 269, 270, 271, 272, 273, 274, 275, 276, 277, 278, 279, 280, 281, 282, 283, 284, 285, 286, 287, 288, 289, 290, 291, 292, 293, 294, 295, 296, 297, 298, 299, 300, 301, 302, 303, 304, 305, 306, 307, 308, 309, 310, 311, 312, 313, 314, 315, 316, 317, 318, 319, 320, 321, 322, 323, 324, 325, 326, 327, 328, 329, 330, 331, 332, 333, 334, 335, 336, 337, 338, 339, 340, 341, 342, 343, 344, 345, 346, 347, 348, 349, 350, 351, 352, 353, 354, 355, 356, 357, 358, 359, 360, 361, 362, 363, 364, 365, 366, 367, 368, 369, 370, 371, 372, 373],
      "AcquisitionTime": ["144645.575000", "144646.855000", "144648.135000", "144649.415000", "144650.695000", "144651.975000", "144653.255000", "144654.535000", "144655.815000", "144657.095000", "144658.375000", "144659.655000", "144700.935000", "144702.215000", "144703.495000", "144704.775000", "144706.055000", "144707.335000", "144708.615000", "144709.895000", "144711.175000", "144712.455000", "144713.735000", "144715.015000", "144716.295000", "144717.575000", "144718.855000", "144720.135000", "144721.415000", "144722.695000", "144723.975000", "144725.255000", "144726.535000", "144727.815000", "144729.095000", "144730.375000", "144731.655000", "144732.935000", "144734.215000", "144735.495000", "144736.775000", "144738.055000", "144739.335000", "144740.615000", "144741.895000", "144743.175000", "144744.455000", "144745.735000", "144747.015000", "144748.295000", "144749.575000", "144750.855000", "144752.135000", "144753.415000", "144754.695000", "144755.975000", "144757.255000", "144758.535000", "144759.815000", "144801.095000", "144802.375000", "144803.655000", "144804.935000", "144806.215000", "144807.495000", "144808.775000", "144810.055000", "144811.335000", "144812.615000", "144813.895000", "144815.175000", "144816.455000", "144817.735000", "144819.015000", "144820.295000", "144821.575000", "144822.855000", "144824.135000", "144825.415000", "144826.695000", "144827.975000", "144829.255000", "144830.535000", "144831.815000", "144833.095000", "144834.375000", "144835.655000", "144836.935000", "144838.215000", "144839.495000", "144840.775000", "144842.055000", "144843.335000", "144844.615000", "144845.895000", "144847.175000", "144848.455000", "144849.735000", "144851.015000", "144852.295000", "144853.575000", "144854.855000", "144856.135000", "144857.415000", "144858.695000", "144859.975000", "144901.255000", "144902.535000", "144903.815000", "144905.095000", "144906.375000", "144907.655000", "144908.935000", "144910.215000", "144911.495000", "144912.775000", "144914.055000", "144915.335000", "144916.615000", "144917.895000", "144919.175000", "144920.455000", "144921.735000", "144923.015000", "144924.295000", "144925.575000", "144926.855000", "144928.135000", "144929.415000", "144930.695000", "144931.975000", "144933.255000", "144934.535000", "144935.815000", "144937.095000", "144938.375000", "144939.655000", "144940.935000", "144942.215000", "144943.495000", "144944.775000", "144946.055000", "144947.335000", "144948.615000", "144949.895000", "144951.175000", "144952.455000", "144953.735000", "144955.015000", "144956.295000", "144957.575000", "144958.855000", "145000.135000", "145001.415000", "145002.695000", "145003.975000", "145005.255000", "145006.535000", "145007.815000", "145009.095000", "145010.375000", "145011.655000", "145012.935000", "145014.215000", "145015.495000", "145016.775000", "145018.055000", "145019.335000", "145020.615000", "145021.895000", "145023.175000", "145024.455000", "145025.735000", "145027.015000", "145028.295000", "145029.575000", "145030.855000", "145032.135000", "145033.415000", "145034.695000", "145035.975000", "145037.255000", "145038.535000", "145039.815000", "145041.095000", "145042.375000", "145043.655000", "145044.935000", "145046.215000", "145047.495000", "145048.775000", "145050.055000", "145051.335000", "145052.615000", "145053.895000", "145055.175000", "145056.455000", "145057.735000", "145059.015000", "145100.295000", "145101.575000", "145102.855000", "145104.135000", "145105.415000", "145106.695000", "145107.975000", "145109.255000", "145110.535000", "145111.815000", "145113.095000", "145114.375000", "145115.655000", "145116.935000", "145118.215000", "145119.495000", "145120.775000", "145122.055000", "145123.335000", "145124.615000", "145125.895000", "145127.175000", "145128.455000", "145129.735000", "145131.015000", "145132.295000", "145133.575000", "145134.855000", "145136.135000", "145137.415000", "145138.695000", "145139.975000", "145141.255000", "145142.535000", "145143.815000", "145145.095000", "145146.375000", "145147.655000", "145148.935000", "145150.215000", "145151.495000", "145152.775000", "145154.055000", "145155.335000", "145156.615000", "145157.895000", "145159.175000", "145200.455000", "145201.735000", "145203.015000", "145204.295000", "145205.575000", "145206.855000", "145208.135000", "145209.415000", "145210.695000", "145211.975000", "145213.255000", "145214.535000", "145215.815000", "145217.095000", "145218.375000", "145219.655000", "145220.935000", "145222.215000", "145223.495000", "145224.775000", "145226.055000", "145227.335000", "145228.615000", "145229.895000", "145231.175000", "145232.455000", "145233.735000", "145235.015000", "145236.295000", "145237.575000", "145238.855000", "145240.135000", "145241.415000", "145242.695000", "145243.975000", "145245.255000", "145246.535000", "145247.815000", "145249.095000", "145250.375000", "145251.655000", "145252.935000", "145254.215000", "145255.495000", "145256.775000", "145258.055000", "145259.335000", "145300.615000", "145301.895000", "145303.175000", "145304.455000", "145305.735000", "145307.015000", "145308.295000", "145309.575000", "145310.855000", "145312.135000", "145313.415000", "145314.695000", "145315.975000", "145317.255000", "145318.535000", "145319.815000", "145321.095000", "145322.375000", "145323.655000", "145324.935000", "145326.215000", "145327.495000", "145328.775000", "145330.055000", "145331.335000", "145332.615000", "145333.895000", "145335.175000", "145336.455000", "145337.735000", "145339.015000", "145340.295000", "145341.575000", "145342.855000", "145344.135000", "145345.415000", "145346.695000", "145347.975000", "145349.255000", "145350.535000", "145351.815000", "145353.095000", "145354.375000", "145355.655000", "145356.935000", "145358.215000", "145359.495000", "145400.775000", "145402.055000", "145403.335000", "145404.615000", "145405.895000", "145407.175000", "145408.455000", "145409.735000", "145411.015000", "145412.295000", "145413.575000", "145414.855000", "145416.135000", "145417.415000", "145418.695000", "145419.975000", "145421.255000", "145422.535000", "145423.815000", "145425.095000", "145426.375000", "145427.655000", "145428.935000", "145430.215000", "145431.495000", "145432.775000", "145434.055000", "145435.335000", "145436.615000", "145437.895000", "145439.175000", "145440.455000", "145441.735000"],
      "ContentTime": ["144725.654000", "144725.658000", "144725.661000", "144725.670000", "144725.673000", "144725.675000", "144725.678000", "144725.681000", "144725.684000", "144725.687000", "144725.690000", "144725.693000", "144725.696000", "144725.699000", "144725.701000", "144725.704000", "144725.707000", "144725.710000", "144725.713000", "144725.716000", "144725.719000", "144725.722000", "144725.725000", "144725.729000", "144725.732000", "144725.735000", "144725.737000", "144725.740000", "144725.743000", "144725.746000", "144725.749000", "144805.635000", "144805.638000", "144805.641000", "144805.644000", "144805.647000", "144805.650000", "144805.653000", "144805.656000", "144805.659000", "144805.666000", "144805.669000", "144805.672000", "144805.675000", "144805.678000", "144805.681000", "144805.684000", "144805.687000", "144805.690000", "144805.692000", "144805.695000", "144805.698000", "144805.701000", "144805.704000", "144805.707000", "144805.710000", "144805.713000", "144805.716000", "144805.719000", "144805.722000", "144805.724000", "144805.727000", "144845.635000", "144845.638000", "144845.641000", "144845.644000", "144845.647000", "144845.656000", "144845.659000", "144845.662000", "144845.665000", "144845.668000", "144845.670000", "144845.673000", "144845.676000", "144845.679000", "144845.682000", "144845.685000", "144845.688000", "144845.691000", "144845.694000", "144845.697000", "144845.699000", "144845.702000", "144845.705000", "144845.708000", "144845.711000", "144845.714000", "144845.717000", "144845.720000", "144845.723000", "144845.726000", "144845.729000", "144925.635000", "144925.638000", "144925.641000", "144925.644000", "144925.647000", "144925.652000", "144925.656000", "144925.659000", "144925.662000", "144925.665000", "144925.668000", "144925.671000", "144925.674000", "144925.677000", "144925.680000", "144925.682000", "144925.685000", "144925.688000", "144925.691000", "144925.694000", "144925.697000", "144925.700000", "144925.703000", "144925.706000", "144925.708000", "144925.711000", "144925.714000", "144925.717000", "144925.720000", "144925.723000", "144925.726000", "145005.635000", "145005.638000", "145005.641000", "145005.644000", "145005.647000", "145005.650000", "145005.653000", "145005.656000", "145005.659000", "145005.661000", "145005.664000", "145005.667000", "145005.670000", "145005.673000", "145005.676000", "145005.679000", "145005.682000", "145005.685000", "145005.687000", "145005.690000", "145005.693000", "145005.696000", "145005.699000", "145005.702000", "145005.705000", "145005.708000", "145005.711000", "145005.714000", "145005.717000", "145005.720000", "145005.722000", "145005.725000", "145045.635000", "145045.638000", "145045.641000", "145045.644000", "145045.647000", "145045.650000", "145045.653000", "145045.656000", "145045.658000", "145045.661000", "145045.664000", "145045.667000", "145045.670000", "145045.673000", "145045.676000", "145045.679000", "145045.682000", "145045.684000", "145045.687000", "145045.690000", "145045.693000", "145045.696000", "145045.708000", "145045.711000", "145045.714000", "145045.717000", "145045.720000", "145045.723000", "145045.725000", "145045.728000", "145045.731000", "145125.635000", "145125.638000", "145125.641000", "145125.644000", "145125.655000", "145125.658000", "145125.661000", "145125.664000", "145125.667000", "145125.669000", "145125.672000", "145125.675000", "145125.678000", "145125.681000", "145125.684000", "145125.687000", "145125.690000", "145125.701000", "145125.704000", "145125.707000", "145125.710000", "145125.713000", "145125.715000", "145125.718000", "145125.721000", "145125.724000", "145125.727000", "145125.730000", "145125.733000", "145125.736000", "145125.739000", "145205.635000", "145205.638000", "145205.641000", "145205.644000", "145205.647000", "145205.651000", "145205.657000", "145205.662000", "145205.665000", "145205.668000", "145205.670000", "145205.673000", "145205.676000", "145205.679000", "145205.682000", "145205.685000", "145205.688000", "145205.691000", "145205.694000", "145205.697000", "145205.700000", "145205.702000", "145205.705000", "145205.708000", "145205.711000", "145205.714000", "145205.717000", "145205.720000", "145205.723000", "145205.726000", "145205.729000", "145245.635000", "145245.638000", "145245.641000", "145245.644000", "145245.647000", "145245.650000", "145245.653000", "145245.656000", "145245.659000", "145245.662000", "145245.664000", "145245.667000", "145245.670000", "145245.673000", "145245.676000", "145245.679000", "145245.682000", "145245.685000", "145245.688000", "145245.691000", "145245.694000", "145245.696000", "145245.699000", "145245.702000", "145245.711000", "145245.713000", "145245.716000", "145245.719000", "145245.722000", "145245.725000", "145245.728000", "145245.731000", "145325.635000", "145325.638000", "145325.642000", "145325.644000", "145325.647000", "145325.650000", "145325.653000", "145325.657000", "145325.660000", "145325.662000", "145325.666000", "145325.668000", "145325.671000", "145325.674000", "145325.677000", "145325.680000", "145325.683000", "145325.686000", "145325.689000", "145325.692000", "145325.695000", "145325.698000", "145325.701000", "145325.704000", "145325.707000", "145325.710000", "145325.713000", "145325.716000", "145325.719000", "145325.722000", "145325.725000", "145405.635000", "145405.638000", "145405.641000", "145405.644000", "145405.647000", "145405.650000", "145405.653000", "145405.656000", "145405.659000", "145405.662000", "145405.665000", "145405.668000", "145405.671000", "145405.673000", "145405.676000", "145405.679000", "145405.682000", "145405.685000", "145405.688000", "145405.691000", "145405.694000", "145405.697000", "145405.700000", "145405.703000", "145405.706000", "145405.709000", "145405.711000", "145405.714000", "145405.717000", "145405.720000", "145405.723000", "145443.109000", "145443.113000", "145443.117000", "145443.120000", "145443.123000", "145443.126000", "145443.130000", "145443.132000", "145443.136000", "145443.139000", "145443.142000", "145443.145000", "145443.148000", "145443.151000", "145443.154000", "145443.157000", "145443.160000", "145443.163000", "145443.167000", "145443.170000", "145443.173000", "145443.176000", "145443.180000", "145443.183000", "145443.186000", "145443.189000", "145443.192000", "145443.195000", "145443.199000", "145443.202000"],
      "InstanceCreationTime": ["144725.654000", "144725.658000", "144725.661000", "144725.670000", "144725.673000", "144725.675000", "144725.678000", "144725.681000", "144725.684000", "144725.687000", "144725.690000", "144725.693000", "144725.696000", "144725.699000", "144725.701000", "144725.704000", "144725.707000", "144725.710000", "144725.713000", "144725.716000", "144725.719000", "144725.722000", "144725.725000", "144725.729000", "144725.732000", "144725.735000", "144725.737000", "144725.740000", "144725.743000", "144725.746000", "144725.749000", "144805.635000", "144805.638000", "144805.641000", "144805.644000", "144805.647000", "144805.650000", "144805.653000", "144805.656000", "144805.659000", "144805.666000", "144805.669000", "144805.672000", "144805.675000", "144805.678000", "144805.681000", "144805.684000", "144805.687000", "144805.690000", "144805.692000", "144805.695000", "144805.698000", "144805.701000", "144805.704000", "144805.707000", "144805.710000", "144805.713000", "144805.716000", "144805.719000", "144805.722000", "144805.724000", "144805.727000", "144845.635000", "144845.638000", "144845.641000", "144845.644000", "144845.647000", "144845.656000", "144845.659000", "144845.662000", "144845.665000", "144845.668000", "144845.670000", "144845.673000", "144845.676000", "144845.679000", "144845.682000", "144845.685000", "144845.688000", "144845.691000", "144845.694000", "144845.697000", "144845.699000", "144845.702000", "144845.705000", "144845.708000", "144845.711000", "144845.714000", "144845.717000", "144845.720000", "144845.723000", "144845.726000", "144845.729000", "144925.635000", "144925.638000", "144925.641000", "144925.644000", "144925.647000", "144925.652000", "144925.656000", "144925.659000", "144925.662000", "144925.665000", "144925.668000", "144925.671000", "144925.674000", "144925.677000", "144925.680000", "144925.682000", "144925.685000", "144925.688000", "144925.691000", "144925.694000", "144925.697000", "144925.700000", "144925.703000", "144925.706000", "144925.708000", "144925.711000", "144925.714000", "144925.717000", "144925.720000", "144925.723000", "144925.726000", "145005.635000", "145005.638000", "145005.641000", "145005.644000", "145005.647000", "145005.650000", "145005.653000", "145005.656000", "145005.659000", "145005.661000", "145005.664000", "145005.667000", "145005.670000", "145005.673000", "145005.676000", "145005.679000", "145005.682000", "145005.685000", "145005.687000", "145005.690000", "145005.693000", "145005.696000", "145005.699000", "145005.702000", "145005.705000", "145005.708000", "145005.711000", "145005.714000", "145005.717000", "145005.720000", "145005.722000", "145005.725000", "145045.635000", "145045.638000", "145045.641000", "145045.644000", "145045.647000", "145045.650000", "145045.653000", "145045.656000", "145045.658000", "145045.661000", "145045.664000", "145045.667000", "145045.670000", "145045.673000", "145045.676000", "145045.679000", "145045.682000", "145045.684000", "145045.687000", "145045.690000", "145045.693000", "145045.696000", "145045.708000", "145045.711000", "145045.714000", "145045.717000", "145045.720000", "145045.723000", "145045.725000", "145045.728000", "145045.731000", "145125.635000", "145125.638000", "145125.641000", "145125.644000", "145125.655000", "145125.658000", "145125.661000", "145125.664000", "145125.667000", "145125.669000", "145125.672000", "145125.675000", "145125.678000", "145125.681000", "145125.684000", "145125.687000", "145125.690000", "145125.701000", "145125.704000", "145125.707000", "145125.710000", "145125.713000", "145125.715000", "145125.718000", "145125.721000", "145125.724000", "145125.727000", "145125.730000", "145125.733000", "145125.736000", "145125.739000", "145205.635000", "145205.638000", "145205.641000", "145205.644000", "145205.647000", "145205.651000", "145205.657000", "145205.662000", "145205.665000", "145205.668000", "145205.670000", "145205.673000", "145205.676000", "145205.679000", "145205.682000", "145205.685000", "145205.688000", "145205.691000", "145205.694000", "145205.697000", "145205.700000", "145205.702000", "145205.705000", "145205.708000", "145205.711000", "145205.714000", "145205.717000", "145205.720000", "145205.723000", "145205.726000", "145205.729000", "145245.635000", "145245.638000", "145245.641000", "145245.644000", "145245.647000", "145245.650000", "145245.653000", "145245.656000", "145245.659000", "145245.662000", "145245.664000", "145245.667000", "145245.670000", "145245.673000", "145245.676000", "145245.679000", "145245.682000", "145245.685000", "145245.688000", "145245.691000", "145245.694000", "145245.696000", "145245.699000", "145245.702000", "145245.711000", "145245.713000", "145245.716000", "145245.719000", "145245.722000", "145245.725000", "145245.728000", "145245.731000", "145325.635000", "145325.638000", "145325.642000", "145325.644000", "145325.647000", "145325.650000", "145325.653000", "145325.657000", "145325.660000", "145325.662000", "145325.666000", "145325.668000", "145325.671000", "145325.674000", "145325.677000", "145325.680000", "145325.683000", "145325.686000", "145325.689000", "145325.692000", "145325.695000", "145325.698000", "145325.701000", "145325.704000", "145325.707000", "145325.710000", "145325.713000", "145325.716000", "145325.719000", "145325.722000", "145325.725000", "145405.635000", "145405.638000", "145405.641000", "145405.644000", "145405.647000", "145405.650000", "145405.653000", "145405.656000", "145405.659000", "145405.662000", "145405.665000", "145405.668000", "145405.671000", "145405.673000", "145405.676000", "145405.679000", "145405.682000", "145405.685000", "145405.688000", "145405.691000", "145405.694000", "145405.697000", "145405.700000", "145405.703000", "145405.706000", "145405.709000", "145405.711000", "145405.714000", "145405.717000", "145405.720000", "145405.723000", "145443.109000", "145443.113000", "145443.117000", "145443.120000", "145443.123000", "145443.126000", "145443.130000", "145443.132000", "145443.136000", "145443.139000", "145443.142000", "145443.145000", "145443.148000", "145443.151000", "145443.154000", "145443.157000", "145443.160000", "145443.163000", "145443.167000", "145443.170000", "145443.173000", "145443.176000", "145443.180000", "145443.183000", "145443.186000", "145443.189000", "145443.192000", "145443.195000", "145443.199000", "145443.202000"],
      "InstanceNumber": [1, 2, 3, 4, 5, 6, 7, 8, 9, 10, 11, 12, 13, 14, 15, 16, 17, 18, 19, 20, 21, 22, 23, 24, 25, 26, 27, 28, 29, 30, 31, 32, 33, 34, 35, 36, 37, 38, 39, 40, 41, 42, 43, 44, 45, 46, 47, 48, 49, 50, 51, 52, 53, 54, 55, 56, 57, 58, 59, 60, 61, 62, 63, 64, 65, 66, 67, 68, 69, 70, 71, 72, 73, 74, 75, 76, 77, 78, 79, 80, 81, 82, 83, 84, 85, 86, 87, 88, 89, 90, 91, 92, 93, 94, 95, 96, 97, 98, 99, 100, 101, 102, 103, 104, 105, 106, 107, 108, 109, 110, 111, 112, 113, 114, 115, 116, 117, 118, 119, 120, 121, 122, 123, 124, 125, 126, 127, 128, 129, 130, 131, 132, 133, 134, 135, 136, 137, 138, 139, 140, 141, 142, 143, 144, 145, 146, 147, 148, 149, 150, 151, 152, 153, 154, 155, 156, 157, 158, 159, 160, 161, 162, 163, 164, 165, 166, 167, 168, 169, 170, 171, 172, 173, 174, 175, 176, 177, 178, 179, 180, 181, 182, 183, 184, 185, 186, 187, 188, 189, 190, 191, 192, 193, 194, 195, 196, 197, 198, 199, 200, 201, 202, 203, 204, 205, 206, 207, 208, 209, 210, 211, 212, 213, 214, 215, 216, 217, 218, 219, 220, 221, 222, 223, 224, 225, 226, 227, 228, 229, 230, 231, 232, 233, 234, 235, 236, 237, 238, 239, 240, 241, 242, 243, 244, 245, 246, 247, 248, 249, 250, 251, 252, 253, 254, 255, 256, 257, 258, 259, 260, 261, 262, 263, 264, 265, 266, 267, 268, 269, 270, 271, 272, 273, 274, 275, 276, 277, 278, 279, 280, 281, 282, 283, 284, 285, 286, 287, 288, 289, 290, 291, 292, 293, 294, 295, 296, 297, 298, 299, 300, 301, 302, 303, 304, 305, 306, 307, 308, 309, 310, 311, 312, 313, 314, 315, 316, 317, 318, 319, 320, 321, 322, 323, 324, 325, 326, 327, 328, 329, 330, 331, 332, 333, 334, 335, 336, 337, 338, 339, 340, 341, 342, 343, 344, 345, 346, 347, 348, 349, 350, 351, 352, 353, 354, 355, 356, 357, 358, 359, 360, 361, 362, 363, 364, 365, 366, 367, 368, 369, 370, 371, 372, 373],
