{
  "AcquisitionMatrixPE": 108,
  "AcquisitionNumber": 1,
  "AcquisitionTime": "14:22:32.230000",
  "BandwidthPerPixelPhaseEncode": 15.964,
  "BaseResolution": 108,
  "BodyPartExamined": "BRAIN",
  "ConsistencyInfo": "N4_VE11C_LATEST_20160120",
  "ConversionSoftware": "dcm2niix",
  "ConversionSoftwareVersion": "v1.0.20180622 GCC6.3.0",
  "DerivedVendorReportedEchoSpacing": 0.000580009,
  "DeviceSerialNumber": "66054",
  "DwellTime": 2.1e-06,
  "EchoTime": 0.031,
  "EchoTrainLength": 95,
  "EffectiveEchoSpacing": 0.000580009,
  "FlipAngle": 64,
  "ImageOrientationPatientDICOM": [0.99854, 0.0400721, -0.0362202, -0.0505839, 0.928913, -0.366826],
  "ImageType": [
    "ORIGINAL",
    "PRIMARY",
    "M",
    "ND",
    "MOSAIC"
],
  "InPlanePhaseEncodingDirectionDICOM": "COL",
  "InstitutionAddress": "Chemin_des_Mines_9_Geneve_District_CH_1211",
  "InstitutionName": "Fondation_Campus_Biotech_Geneva",
  "InstitutionalDepartmentName": "Department",
  "MRAcquisitionType": "2D",
  "MagneticFieldStrength": 3,
  "Manufacturer": "Siemens",
  "ManufacturersModelName": "Prisma",
  "Modality": "MR",
  "MultibandAccelerationFactor": 4,
  "PartialFourier": 0.875,
  "PatientPosition": "HFS",
  "PercentPhaseFOV": 100,
  "PhaseEncodingDirection": "j-",
  "PhaseEncodingSteps": 95,
  "PhaseResolution": 1,
  "PixelBandwidth": 2205,
  "ProcedureStepDescription": "J.DRM_Michael",
  "ProtocolName": "Run1_bold_s4_TR1.28",
  "PulseSequenceDetails": "%SiemensSeq%_ep2d_bold",
  "ReceiveCoilActiveElements": "HC1-7;NC1,2",
  "ReceiveCoilName": "HeadNeck_64",
  "ReconMatrixPE": 108,
  "RepetitionTime": 1.28,
  "SAR": 0.0936589,
  "ScanOptions": "PFP_FS",
  "ScanningSequence": "EP",
  "SequenceName": "_epfid2d1_108",
  "SequenceVariant": "SK",
  "SeriesDescription": "Run1_bold_s4_TR1.28",
  "SeriesNumber": 5,
  "ShimSetting": [-1271, -11688, 6340, 513, 160, -98, -120, 73],
  "SliceThickness": 2,
  "SliceTiming": [0.945, 0, 0.63, 0.0775, 0.7075, 0.1575, 0.7875, 0.235, 0.865, 0.3925, 1.0225, 0.4725, 1.1025, 0.55, 1.18, 0.315, 0.945, 0, 0.63, 0.0775, 0.7075, 0.1575, 0.7875, 0.235, 0.865, 0.3925, 1.0225, 0.4725, 1.1025, 0.55, 1.18, 0.315, 0.945, 0, 0.63, 0.0775, 0.7075, 0.1575, 0.7875, 0.235, 0.865, 0.3925, 1.0225, 0.4725, 1.1025, 0.55, 1.18, 0.315, 0.945, 0, 0.63, 0.0775, 0.7075, 0.1575, 0.7875, 0.235, 0.865, 0.3925, 1.0225, 0.4725, 1.1025, 0.55, 1.18, 0.315],
  "SoftwareVersions": "syngo_MR_E11",
  "SpacingBetweenSlices": 2,
  "StationName": "AWP66054",
  "TaskName": "main",
  "TotalReadoutTime": 0.0620609,
  "TxRefAmp": 254.311,
  "dcmmeta_affine": [
    [-1.9878344535827637, -0.10069940984249115, -0.03789191693067551, 111.71354675292969],
    [-0.07977320998907089, 1.8492258787155151, -0.7362446188926697, -68.24689483642578],
    [-0.0721050500869751, 0.7302548289299011, 1.8591686487197876, -80.78678894042969],
    [0.0, 0.0, 0.0, 1.0]
],
  "dcmmeta_reorient_transform": [
    [0.0, -1.0, 0.0, 107.0],
    [1.0, 0.0, 0.0, 0.0],
    [0.0, 0.0, 1.0, 0.0],
    [0.0, 0.0, 0.0, 1.0]
],
  "dcmmeta_shape": [108, 108, 64, 373],
  "dcmmeta_slice_dim": 2,
  "dcmmeta_version": 0.6,
  "global": {
    "const": {
      "AccessionNumber": "",
      "AcquisitionMatrix": [108, 0, 0, 108],
      "AngioFlag": "N",
      "BitsAllocated": 16,
      "BitsStored": 12,
      "BodyPartExamined": "BRAIN",
      "Columns": 864,
      "EchoNumbers": 1,
      "EchoTime": 31.0,
      "EchoTrainLength": 95,
      "FlipAngle": 64.0,
      "HighBit": 11,
      "ImageOrientationPatient": [0.99854009487002, 0.04007212444639, -0.0362202123037, -0.0505838868389, 0.92891344772033, -0.3668256766321],
      "ImagePositionPatient": [-814.27577262283, -858.78193157122, 300.642515221],
      "ImageType": [
        "ORIGINAL",
        "PRIMARY",
        "M",
        "ND",
        "MOSAIC"
],
      "ImagedNucleus": "1H",
      "ImagingFrequency": 123.257488,
      "InPlanePhaseEncodingDirection": "COL",
      "MRAcquisitionType": "2D",
      "MagneticFieldStrength": 3.0,
      "Manufacturer": "SIEMENS",
      "ManufacturerModelName": "Prisma",
      "Modality": "MR",
      "NumberOfAverages": 1.0,
      "NumberOfPhaseEncodingSteps": 95,
      "PercentPhaseFieldOfView": 100.0,
      "PercentSampling": 100.0,
      "PerformedProcedureStepStartTime": "141638.689000",
      "PhotometricInterpretation": "MONOCHROME2",
      "PixelBandwidth": 2205.0,
      "PixelRepresentation": 0,
      "PixelSpacing": [1.990740776062, 1.990740776062],
      "PositionReferenceIndicator": "",
      "ProtocolName": "Run1_bold_s4_TR1.28",
      "RepetitionTime": 1280.0,
      "Rows": 864,
      "SAR": 0.09365889359988,
      "SamplesPerPixel": 1,
      "ScanOptions": [
        "PFP",
        "FS"
],
      "ScanningSequence": "EP",
      "SequenceName": "*epfid2d1_108",
      "SequenceVariant": "SK",
      "SeriesDescription": "Run1_bold_s4_TR1.28",
      "SeriesNumber": 5,
      "SeriesTime": "142305.636000",
      "SliceLocation": -52.091449003123,
      "SliceThickness": 2.0,
      "SmallestImagePixelValue": 0,
      "SoftwareVersions": "syngo MR E11",
      "SpacingBetweenSlices": 2.0000000430781,
      "SpecificCharacterSet": "ISO_IR 100",
      "StudyID": "1",
      "StudyTime": "141638.630000",
      "TransmitCoilName": "Body",
      "VariableFlipAngleFlag": "N",
      "WindowCenterWidthExplanation": "Algo1",
      "dBdt": 0.0},
    "slices": {}
  },
  "time": {
    "samples": {
      "AcquisitionNumber": [1, 2, 3, 4, 5, 6, 7, 8, 9, 10, 11, 12, 13, 14, 15, 16, 17, 18, 19, 20, 21, 22, 23, 24, 25, 26, 27, 28, 29, 30, 31, 32, 33, 34, 35, 36, 37, 38, 39, 40, 41, 42, 43, 44, 45, 46, 47, 48, 49, 50, 51, 52, 53, 54, 55, 56, 57, 58, 59, 60, 61, 62, 63, 64, 65, 66, 67, 68, 69, 70, 71, 72, 73, 74, 75, 76, 77, 78, 79, 80, 81, 82, 83, 84, 85, 86, 87, 88, 89, 90, 91, 92, 93, 94, 95, 96, 97, 98, 99, 100, 101, 102, 103, 104, 105, 106, 107, 108, 109, 110, 111, 112, 113, 114, 115, 116, 117, 118, 119, 120, 121, 122, 123, 124, 125, 126, 127, 128, 129, 130, 131, 132, 133, 134, 135, 136, 137, 138, 139, 140, 141, 142, 143, 144, 145, 146, 147, 148, 149, 150, 151, 152, 153, 154, 155, 156, 157, 158, 159, 160, 161, 162, 163, 164, 165, 166, 167, 168, 169, 170, 171, 172, 173, 174, 175, 176, 177, 178, 179, 180, 181, 182, 183, 184, 185, 186, 187, 188, 189, 190, 191, 192, 193, 194, 195, 196, 197, 198, 199, 200, 201, 202, 203, 204, 205, 206, 207, 208, 209, 210, 211, 212, 213, 214, 215, 216, 217, 218, 219, 220, 221, 222, 223, 224, 225, 226, 227, 228, 229, 230, 231, 232, 233, 234, 235, 236, 237, 238, 239, 240, 241, 242, 243, 244, 245, 246, 247, 248, 249, 250, 251, 252, 253, 254, 255, 256, 257, 258, 259, 260, 261, 262, 263, 264, 265, 266, 267, 268, 269, 270, 271, 272, 273, 274, 275, 276, 277, 278, 279, 280, 281, 282, 283, 284, 285, 286, 287, 288, 289, 290, 291, 292, 293, 294, 295, 296, 297, 298, 299, 300, 301, 302, 303, 304, 305, 306, 307, 308, 309, 310, 311, 312, 313, 314, 315, 316, 317, 318, 319, 320, 321, 322, 323, 324, 325, 326, 327, 328, 329, 330, 331, 332, 333, 334, 335, 336, 337, 338, 339, 340, 341, 342, 343, 344, 345, 346, 347, 348, 349, 350, 351, 352, 353, 354, 355, 356, 357, 358, 359, 360, 361, 362, 363, 364, 365, 366, 367, 368, 369, 370, 371, 372, 373],
      "AcquisitionTime": ["142232.230000", "142233.510000", "142234.790000", "142236.070000", "142237.350000", "142238.630000", "142239.910000", "142241.190000", "142242.470000", "142243.750000", "142245.030000", "142246.310000", "142247.590000", "142248.870000", "142250.150000", "142251.430000", "142252.710000", "142253.990000", "142255.270000", "142256.550000", "142257.830000", "142259.110000", "142300.390000", "142301.670000", "142302.950000", "142304.230000", "142305.510000", "142306.790000", "142308.070000", "142309.350000", "142310.630000", "142311.910000", "142313.190000", "142314.470000", "142315.750000", "142317.030000", "142318.310000", "142319.590000", "142320.870000", "142322.150000", "142323.430000", "142324.710000", "142325.990000", "142327.270000", "142328.550000", "142329.830000", "142331.110000", "142332.390000", "142333.670000", "142334.950000", "142336.230000", "142337.510000", "142338.790000", "142340.070000", "142341.350000", "142342.630000", "142343.910000", "142345.190000", "142346.470000", "142347.750000", "142349.030000", "142350.310000", "142351.590000", "142352.870000", "142354.150000", "142355.430000", "142356.710000", "142357.990000", "142359.270000", "142400.550000", "142401.830000", "142403.110000", "142404.390000", "142405.670000", "142406.950000", "142408.230000", "142409.510000", "142410.790000", "142412.070000", "142413.350000", "142414.630000", "142415.910000", "142417.190000", "142418.470000", "142419.750000", "142421.030000", "142422.310000", "142423.590000", "142424.870000", "142426.150000", "142427.430000", "142428.710000", "142429.990000", "142431.270000", "142432.550000", "142433.830000", "142435.110000", "142436.390000", "142437.670000", "142438.950000", "142440.230000", "142441.510000", "142442.790000", "142444.070000", "142445.350000", "142446.630000", "142447.910000", "142449.190000", "142450.470000", "142451.750000", "142453.030000", "142454.310000", "142455.590000", "142456.870000", "142458.150000", "142459.430000", "142500.710000", "142501.990000", "142503.270000", "142504.550000", "142505.830000", "142507.110000", "142508.390000", "142509.670000", "142510.950000", "142512.230000", "142513.510000", "142514.790000", "142516.070000", "142517.350000", "142518.630000", "142519.910000", "142521.190000", "142522.470000", "142523.750000", "142525.030000", "142526.310000", "142527.590000", "142528.870000", "142530.150000", "142531.430000", "142532.710000", "142533.990000", "142535.270000", "142536.550000", "142537.830000", "142539.110000", "142540.390000", "142541.670000", "142542.950000", "142544.230000", "142545.510000", "142546.790000", "142548.070000", "142549.350000", "142550.630000", "142551.910000", "142553.190000", "142554.470000", "142555.750000", "142557.030000", "142558.310000", "142559.590000", "142600.870000", "142602.150000", "142603.430000", "142604.710000", "142605.990000", "142607.270000", "142608.550000", "142609.830000", "142611.110000", "142612.390000", "142613.670000", "142614.950000", "142616.230000", "142617.510000", "142618.790000", "142620.070000", "142621.350000", "142622.630000", "142623.910000", "142625.190000", "142626.470000", "142627.750000", "142629.030000", "142630.310000", "142631.590000", "142632.870000", "142634.150000", "142635.430000", "142636.710000", "142637.990000", "142639.270000", "142640.550000", "142641.830000", "142643.110000", "142644.390000", "142645.670000", "142646.950000", "142648.230000", "142649.510000", "142650.790000", "142652.070000", "142653.350000", "142654.630000", "142655.910000", "142657.190000", "142658.470000", "142659.750000", "142701.030000", "142702.310000", "142703.590000", "142704.870000", "142706.150000", "142707.430000", "142708.710000", "142709.990000", "142711.270000", "142712.550000", "142713.830000", "142715.110000", "142716.390000", "142717.670000", "142718.950000", "142720.230000", "142721.510000", "142722.790000", "142724.070000", "142725.350000", "142726.630000", "142727.910000", "142729.190000", "142730.470000", "142731.750000", "142733.030000", "142734.310000", "142735.590000", "142736.870000", "142738.150000", "142739.430000", "142740.710000", "142741.990000", "142743.270000", "142744.550000", "142745.830000", "142747.110000", "142748.390000", "142749.670000", "142750.950000", "142752.230000", "142753.510000", "142754.790000", "142756.070000", "142757.350000", "142758.630000", "142759.910000", "142801.190000", "142802.470000", "142803.750000", "142805.030000", "142806.310000", "142807.590000", "142808.870000", "142810.150000", "142811.430000", "142812.710000", "142813.990000", "142815.270000", "142816.550000", "142817.830000", "142819.110000", "142820.390000", "142821.670000", "142822.950000", "142824.230000", "142825.510000", "142826.790000", "142828.070000", "142829.350000", "142830.630000", "142831.910000", "142833.190000", "142834.470000", "142835.750000", "142837.030000", "142838.310000", "142839.590000", "142840.870000", "142842.150000", "142843.430000", "142844.710000", "142845.990000", "142847.270000", "142848.550000", "142849.830000", "142851.110000", "142852.390000", "142853.670000", "142854.950000", "142856.230000", "142857.510000", "142858.790000", "142900.070000", "142901.350000", "142902.630000", "142903.910000", "142905.190000", "142906.470000", "142907.750000", "142909.030000", "142910.310000", "142911.590000", "142912.870000", "142914.150000", "142915.430000", "142916.710000", "142917.990000", "142919.270000", "142920.550000", "142921.830000", "142923.110000", "142924.390000", "142925.670000", "142926.950000", "142928.230000", "142929.510000", "142930.790000", "142932.070000", "142933.350000", "142934.630000", "142935.910000", "142937.190000", "142938.470000", "142939.750000", "142941.030000", "142942.310000", "142943.590000", "142944.870000", "142946.150000", "142947.430000", "142948.710000", "142949.990000", "142951.270000", "142952.550000", "142953.830000", "142955.110000", "142956.390000", "142957.670000", "142958.950000", "143000.230000", "143001.510000", "143002.790000", "143004.070000", "143005.350000", "143006.630000", "143007.910000", "143009.190000", "143010.470000", "143011.750000", "143013.030000", "143014.310000", "143015.590000", "143016.870000", "143018.150000", "143019.430000", "143020.710000", "143021.990000", "143023.270000", "143024.550000", "143025.830000", "143027.110000", "143028.390000"],
      "ContentTime": ["142305.640000", "142305.652000", "142305.655000", "142305.670000", "142305.672000", "142305.675000", "142305.678000", "142305.681000", "142305.684000", "142305.687000", "142305.690000", "142305.693000", "142305.696000", "142305.699000", "142305.701000", "142305.711000", "142305.714000", "142305.717000", "142305.719000", "142305.722000", "142305.725000", "142305.728000", "142305.731000", "142305.734000", "142305.737000", "142345.635000", "142345.638000", "142345.641000", "142345.644000", "142345.647000", "142345.660000", "142345.663000", "142345.665000", "142345.668000", "142345.672000", "142345.675000", "142345.678000", "142345.681000", "142345.684000", "142345.687000", "142345.690000", "142345.693000", "142345.696000", "142345.699000", "142345.702000", "142345.705000", "142345.708000", "142345.714000", "142345.717000", "142345.720000", "142345.723000", "142345.726000", "142345.729000", "142345.732000", "142345.735000", "142345.738000", "142425.635000", "142425.638000", "142425.641000", "142425.644000", "142425.647000", "142425.650000", "142425.653000", "142425.656000", "142425.658000", "142425.661000", "142425.664000", "142425.667000", "142425.670000", "142425.673000", "142425.676000", "142425.679000", "142425.682000", "142425.684000", "142425.700000", "142425.703000", "142425.706000", "142425.709000", "142425.712000", "142425.715000", "142425.718000", "142425.721000", "142425.724000", "142425.726000", "142425.729000", "142425.732000", "142425.735000", "142425.738000", "142505.635000", "142505.638000", "142505.641000", "142505.644000", "142505.647000", "142505.650000", "142505.653000", "142505.656000", "142505.658000", "142505.661000", "142505.664000", "142505.667000", "142505.670000", "142505.673000", "142505.676000", "142505.679000", "142505.682000", "142505.685000", "142505.688000", "142505.691000", "142505.699000", "142505.702000", "142505.705000", "142505.708000", "142505.711000", "142505.714000", "142505.717000", "142505.720000", "142505.723000", "142505.726000", "142505.729000", "142545.635000", "142545.638000", "142545.641000", "142545.644000", "142545.647000", "142545.650000", "142545.653000", "142545.655000", "142545.658000", "142545.661000", "142545.664000", "142545.667000", "142545.670000", "142545.673000", "142545.676000", "142545.678000", "142545.681000", "142545.684000", "142545.687000", "142545.690000", "142545.693000", "142545.696000", "142545.699000", "142545.702000", "142545.705000", "142545.708000", "142545.711000", "142545.714000", "142545.716000", "142545.719000", "142545.722000", "142625.635000", "142625.638000", "142625.641000", "142625.644000", "142625.647000", "142625.650000", "142625.653000", "142625.655000", "142625.658000", "142625.661000", "142625.664000", "142625.667000", "142625.671000", "142625.674000", "142625.677000", "142625.680000", "142625.683000", "142625.686000", "142625.689000", "142625.692000", "142625.695000", "142625.698000", "142625.701000", "142625.704000", "142625.707000", "142625.710000", "142625.713000", "142625.716000", "142625.719000", "142625.722000", "142625.725000", "142705.635000", "142705.638000", "142705.641000", "142705.644000", "142705.647000", "142705.650000", "142705.653000", "142705.656000", "142705.659000", "142705.661000", "142705.664000", "142705.667000", "142705.670000", "142705.673000", "142705.676000", "142705.679000", "142705.682000", "142705.685000", "142705.688000", "142705.691000", "142705.694000", "142705.697000", "142705.699000", "142705.702000", "142705.705000", "142705.708000", "142705.711000", "142705.714000", "142705.717000", "142705.720000", "142705.722000", "142705.725000", "142745.635000", "142745.638000", "142745.641000", "142745.644000", "142745.647000", "142745.650000", "142745.653000", "142745.656000", "142745.659000", "142745.661000", "142745.664000", "142745.667000", "142745.670000", "142745.673000", "142745.676000", "142745.679000", "142745.682000", "142745.685000", "142745.688000", "142745.691000", "142745.693000", "142745.696000", "142745.699000", "142745.702000", "142745.705000", "142745.708000", "142745.711000", "142745.714000", "142745.717000", "142745.720000", "142745.723000", "142805.635000", "142805.638000", "142805.641000", "142805.644000", "142805.647000", "142805.650000", "142805.653000", "142805.656000", "142805.659000", "142805.662000", "142805.665000", "142805.668000", "142805.671000", "142805.674000", "142805.677000", "142805.680000", "142845.635000", "142845.648000", "142845.651000", "142845.653000", "142845.656000", "142845.659000", "142845.662000", "142845.665000", "142845.668000", "142845.671000", "142845.674000", "142845.677000", "142845.680000", "142845.683000", "142845.686000", "142845.689000", "142845.692000", "142845.694000", "142845.697000", "142845.700000", "142845.703000", "142845.706000", "142845.709000", "142845.712000", "142845.715000", "142845.718000", "142845.721000", "142845.724000", "142845.727000", "142845.730000", "142845.732000", "142925.635000", "142925.638000", "142925.641000", "142925.644000", "142925.647000", "142925.651000", "142925.654000", "142925.657000", "142925.660000", "142925.663000", "142925.666000", "142925.669000", "142925.671000", "142925.674000", "142925.677000", "142925.680000", "142925.683000", "142925.686000", "142925.689000", "142925.692000", "142925.695000", "142925.698000", "142925.701000", "142925.704000", "142925.707000", "142925.710000", "142925.713000", "142925.716000", "142925.719000", "142925.722000", "142925.724000", "143005.635000", "143005.638000", "143005.641000", "143005.644000", "143005.647000", "143005.650000", "143005.653000", "143005.656000", "143005.658000", "143005.661000", "143005.664000", "143005.667000", "143005.670000", "143005.673000", "143005.676000", "143005.679000", "143005.682000", "143005.685000", "143005.688000", "143005.691000", "143005.694000", "143005.697000", "143005.700000", "143005.703000", "143005.705000", "143005.708000", "143005.711000", "143005.714000", "143005.717000", "143005.720000", "143005.723000", "143030.163000", "143030.168000", "143030.171000", "143030.175000", "143030.178000", "143030.182000", "143030.186000", "143030.189000", "143030.192000", "143030.196000", "143030.200000", "143030.203000", "143030.207000", "143030.210000", "143030.213000", "143030.217000", "143030.220000", "143030.223000", "143030.226000", "143030.229000"],
      "InstanceCreationTime": ["142305.640000", "142305.652000", "142305.655000", "142305.670000", "142305.672000", "142305.675000", "142305.678000", "142305.681000", "142305.684000", "142305.687000", "142305.690000", "142305.693000", "142305.696000", "142305.699000", "142305.701000", "142305.711000", "142305.714000", "142305.717000", "142305.719000", "142305.722000", "142305.725000", "142305.728000", "142305.731000", "142305.734000", "142305.737000", "142345.635000", "142345.638000", "142345.641000", "142345.644000", "142345.647000", "142345.660000", "142345.663000", "142345.665000", "142345.668000", "142345.672000", "142345.675000", "142345.678000", "142345.681000", "142345.684000", "142345.687000", "142345.690000", "142345.693000", "142345.696000", "142345.699000", "142345.702000", "142345.705000", "142345.708000", "142345.714000", "142345.717000", "142345.720000", "142345.723000", "142345.726000", "142345.729000", "142345.732000", "142345.735000", "142345.738000", "142425.635000", "142425.638000", "142425.641000", "142425.644000", "142425.647000", "142425.650000", "142425.653000", "142425.656000", "142425.658000", "142425.661000", "142425.664000", "142425.667000", "142425.670000", "142425.673000", "142425.676000", "142425.679000", "142425.682000", "142425.684000", "142425.700000", "142425.703000", "142425.706000", "142425.709000", "142425.712000", "142425.715000", "142425.718000", "142425.721000", "142425.724000", "142425.726000", "142425.729000", "142425.732000", "142425.735000", "142425.738000", "142505.635000", "142505.638000", "142505.641000", "142505.644000", "142505.647000", "142505.650000", "142505.653000", "142505.656000", "142505.658000", "142505.661000", "142505.664000", "142505.667000", "142505.670000", "142505.673000", "142505.676000", "142505.679000", "142505.682000", "142505.685000", "142505.688000", "142505.691000", "142505.699000", "142505.702000", "142505.705000", "142505.708000", "142505.711000", "142505.714000", "142505.717000", "142505.720000", "142505.723000", "142505.726000", "142505.729000", "142545.635000", "142545.638000", "142545.641000", "142545.644000", "142545.647000", "142545.650000", "142545.653000", "142545.655000", "142545.658000", "142545.661000", "142545.664000", "142545.667000", "142545.670000", "142545.673000", "142545.676000", "142545.678000", "142545.681000", "142545.684000", "142545.687000", "142545.690000", "142545.693000", "142545.696000", "142545.699000", "142545.702000", "142545.705000", "142545.708000", "142545.711000", "142545.714000", "142545.716000", "142545.719000", "142545.722000", "142625.635000", "142625.638000", "142625.641000", "142625.644000", "142625.647000", "142625.650000", "142625.653000", "142625.655000", "142625.658000", "142625.661000", "142625.664000", "142625.667000", "142625.671000", "142625.674000", "142625.677000", "142625.680000", "142625.683000", "142625.686000", "142625.689000", "142625.692000", "142625.695000", "142625.698000", "142625.701000", "142625.704000", "142625.707000", "142625.710000", "142625.713000", "142625.716000", "142625.719000", "142625.722000", "142625.725000", "142705.635000", "142705.638000", "142705.641000", "142705.644000", "142705.647000", "142705.650000", "142705.653000", "142705.656000", "142705.659000", "142705.661000", "142705.664000", "142705.667000", "142705.670000", "142705.673000", "142705.676000", "142705.679000", "142705.682000", "142705.685000", "142705.688000", "142705.691000", "142705.694000", "142705.697000", "142705.699000", "142705.702000", "142705.705000", "142705.708000", "142705.711000", "142705.714000", "142705.717000", "142705.720000", "142705.722000", "142705.725000", "142745.635000", "142745.638000", "142745.641000", "142745.644000", "142745.647000", "142745.650000", "142745.653000", "142745.656000", "142745.659000", "142745.661000", "142745.664000", "142745.667000", "142745.670000", "142745.673000", "142745.676000", "142745.679000", "142745.682000", "142745.685000", "142745.688000", "142745.691000", "142745.693000", "142745.696000", "142745.699000", "142745.702000", "142745.705000", "142745.708000", "142745.711000", "142745.714000", "142745.717000", "142745.720000", "142745.723000", "142805.635000", "142805.638000", "142805.641000", "142805.644000", "142805.647000", "142805.650000", "142805.653000", "142805.656000", "142805.659000", "142805.662000", "142805.665000", "142805.668000", "142805.671000", "142805.674000", "142805.677000", "142805.680000", "142845.635000", "142845.648000", "142845.651000", "142845.653000", "142845.656000", "142845.659000", "142845.662000", "142845.665000", "142845.668000", "142845.671000", "142845.674000", "142845.677000", "142845.680000", "142845.683000", "142845.686000", "142845.689000", "142845.692000", "142845.694000", "142845.697000", "142845.700000", "142845.703000", "142845.706000", "142845.709000", "142845.712000", "142845.715000", "142845.718000", "142845.721000", "142845.724000", "142845.727000", "142845.730000", "142845.732000", "142925.635000", "142925.638000", "142925.641000", "142925.644000", "142925.647000", "142925.651000", "142925.654000", "142925.657000", "142925.660000", "142925.663000", "142925.666000", "142925.669000", "142925.671000", "142925.674000", "142925.677000", "142925.680000", "142925.683000", "142925.686000", "142925.689000", "142925.692000", "142925.695000", "142925.698000", "142925.701000", "142925.704000", "142925.707000", "142925.710000", "142925.713000", "142925.716000", "142925.719000", "142925.722000", "142925.724000", "143005.635000", "143005.638000", "143005.641000", "143005.644000", "143005.647000", "143005.650000", "143005.653000", "143005.656000", "143005.658000", "143005.661000", "143005.664000", "143005.667000", "143005.670000", "143005.673000", "143005.676000", "143005.679000", "143005.682000", "143005.685000", "143005.688000", "143005.691000", "143005.694000", "143005.697000", "143005.700000", "143005.703000", "143005.705000", "143005.708000", "143005.711000", "143005.714000", "143005.717000", "143005.720000", "143005.723000", "143030.163000", "143030.168000", "143030.171000", "143030.175000", "143030.178000", "143030.182000", "143030.186000", "143030.189000", "143030.192000", "143030.196000", "143030.200000", "143030.203000", "143030.207000", "143030.210000", "143030.213000", "143030.217000", "143030.220000", "143030.223000", "143030.226000", "143030.229000"],
      "InstanceNumber": [1, 2, 3, 4, 5, 6, 7, 8, 9, 10, 11, 12, 13, 14, 15, 16, 17, 18, 19, 20, 21, 22, 23, 24, 25, 26, 27, 28, 29, 30, 31, 32, 33, 34, 35, 36, 37, 38, 39, 40, 41, 42, 43, 44, 45, 46, 47, 48, 49, 50, 51, 52, 53, 54, 55, 56, 57, 58, 59, 60, 61, 62, 63, 64, 65, 66, 67, 68, 69, 70, 71, 72, 73, 74, 75, 76, 77, 78, 79, 80, 81, 82, 83, 84, 85, 86, 87, 88, 89, 90, 91, 92, 93, 94, 95, 96, 97, 98, 99, 100, 101, 102, 103, 104, 105, 106, 107, 108, 109, 110, 111, 112, 113, 114, 115, 116, 117, 118, 119, 120, 121, 122, 123, 124, 125, 126, 127, 128, 129, 130, 131, 132, 133, 134, 135, 136, 137, 138, 139, 140, 141, 142, 143, 144, 145, 146, 147, 148, 149, 150, 151, 152, 153, 154, 155, 156, 157, 158, 159, 160, 161, 162, 163, 164, 165, 166, 167, 168, 169, 170, 171, 172, 173, 174, 175, 176, 177, 178, 179, 180, 181, 182, 183, 184, 185, 186, 187, 188, 189, 190, 191, 192, 193, 194, 195, 196, 197, 198, 199, 200, 201, 202, 203, 204, 205, 206, 207, 208, 209, 210, 211, 212, 213, 214, 215, 216, 217, 218, 219, 220, 221, 222, 223, 224, 225, 226, 227, 228, 229, 230, 231, 232, 233, 234, 235, 236, 237, 238, 239, 240, 241, 242, 243, 244, 245, 246, 247, 248, 249, 250, 251, 252, 253, 254, 255, 256, 257, 258, 259, 260, 261, 262, 263, 264, 265, 266, 267, 268, 269, 270, 271, 272, 273, 274, 275, 276, 277, 278, 279, 280, 281, 282, 283, 284, 285, 286, 287, 288, 289, 290, 291, 292, 293, 294, 295, 296, 297, 298, 299, 300, 301, 302, 303, 304, 305, 306, 307, 308, 309, 310, 311, 312, 313, 314, 315, 316, 317, 318, 319, 320, 321, 322, 323, 324, 325, 326, 327, 328, 329, 330, 331, 332, 333, 334, 335, 336, 337, 338, 339, 340, 341, 342, 343, 344, 345, 346, 347, 348, 349, 350, 351, 352, 353, 354, 355, 356, 357, 358, 359, 360, 361, 362, 363, 364, 365, 366, 367, 368, 369, 370, 371, 372, 373],
