{
  "AcquisitionMatrixPE": 108,
  "AcquisitionNumber": 1,
  "AcquisitionTime": "12:04:32.920000",
  "BandwidthPerPixelPhaseEncode": 15.964,
  "BaseResolution": 108,
  "BodyPartExamined": "BRAIN",
  "ConsistencyInfo": "N4_VE11C_LATEST_20160120",
  "ConversionSoftware": "dcm2niix",
  "ConversionSoftwareVersion": "v1.0.20180622 GCC6.3.0",
  "DerivedVendorReportedEchoSpacing": 0.000580009,
  "DeviceSerialNumber": "66054",
  "DwellTime": 2.1e-06,
  "EchoTime": 0.031,
  "EchoTrainLength": 95,
  "EffectiveEchoSpacing": 0.000580009,
  "FlipAngle": 64,
  "ImageOrientationPatientDICOM": [0.999546, 0.0150042, -0.0261205, -0.0279199, 0.786986, -0.616339],
  "ImageType": [
    "ORIGINAL",
    "PRIMARY",
    "M",
    "ND",
    "MOSAIC"
],
  "InPlanePhaseEncodingDirectionDICOM": "COL",
  "InstitutionAddress": "Chemin_des_Mines_9_Geneve_District_CH_1211",
  "InstitutionName": "Fondation_Campus_Biotech_Geneva",
  "InstitutionalDepartmentName": "Department",
  "MRAcquisitionType": "2D",
  "MagneticFieldStrength": 3,
  "Manufacturer": "Siemens",
  "ManufacturersModelName": "Prisma",
  "Modality": "MR",
  "MultibandAccelerationFactor": 4,
  "PartialFourier": 0.875,
  "PatientPosition": "HFS",
  "PercentPhaseFOV": 100,
  "PhaseEncodingDirection": "j-",
  "PhaseEncodingSteps": 95,
  "PhaseResolution": 1,
  "PixelBandwidth": 2205,
  "ProcedureStepDescription": "J.DRM_Michael",
  "ProtocolName": "Run6_bold_s4_TR1.28",
  "PulseSequenceDetails": "%SiemensSeq%_ep2d_bold",
  "ReceiveCoilActiveElements": "HC1-7;NC1,2",
  "ReceiveCoilName": "HeadNeck_64",
  "ReconMatrixPE": 108,
  "RepetitionTime": 1.28,
  "SAR": 0.0717685,
  "ScanOptions": "PFP_FS",
  "ScanningSequence": "EP",
  "SequenceName": "_epfid2d1_108",
  "SequenceVariant": "SK",
  "SeriesDescription": "Run6_bold_s4_TR1.28",
  "SeriesNumber": 14,
  "ShimSetting": [-1253, -11645, 6433, 703, 214, 6, 154, 69],
  "SliceThickness": 2,
  "SliceTiming": [0.945, 0, 0.63, 0.0775, 0.7075, 0.1575, 0.7875, 0.235, 0.865, 0.3925, 1.0225, 0.4725, 1.1025, 0.55, 1.18, 0.315, 0.945, 0, 0.63, 0.0775, 0.7075, 0.1575, 0.7875, 0.235, 0.865, 0.3925, 1.0225, 0.4725, 1.1025, 0.55, 1.18, 0.315, 0.945, 0, 0.63, 0.0775, 0.7075, 0.1575, 0.7875, 0.235, 0.865, 0.3925, 1.0225, 0.4725, 1.1025, 0.55, 1.18, 0.315, 0.945, 0, 0.63, 0.0775, 0.7075, 0.1575, 0.7875, 0.235, 0.865, 0.3925, 1.0225, 0.4725, 1.1025, 0.55, 1.18, 0.315],
  "SoftwareVersions": "syngo_MR_E11",
  "SpacingBetweenSlices": 2,
  "StationName": "AWP66054",
  "TaskName": "main",
  "TotalReadoutTime": 0.0620609,
  "TxRefAmp": 252.019,
  "dcmmeta_affine": [
    [-1.989837408065796, -0.05558120086789131, -0.022617608308792114, 108.08765411376953],
    [-0.029869504272937775, 1.566685438156128, -1.2335762977600098, -52.76380157470703],
    [-0.05199916288256645, 1.2269703149795532, 1.5740959644317627, -97.34101104736328],
    [0.0, 0.0, 0.0, 1.0]
],
  "dcmmeta_reorient_transform": [
    [0.0, -1.0, 0.0, 107.0],
    [1.0, 0.0, 0.0, 0.0],
    [0.0, 0.0, 1.0, 0.0],
    [0.0, 0.0, 0.0, 1.0]
],
  "dcmmeta_shape": [108, 108, 64, 373],
  "dcmmeta_slice_dim": 2,
  "dcmmeta_version": 0.6,
  "global": {
    "const": {
      "AccessionNumber": "",
      "AcquisitionMatrix": [108, 0, 0, 108],
      "AngioFlag": "N",
      "BitsAllocated": 16,
      "BitsStored": 12,
      "BodyPartExamined": "BRAIN",
      "Columns": 864,
      "EchoNumbers": 1,
      "EchoTime": 31.0,
      "EchoTrainLength": 95,
      "FlipAngle": 64.0,
      "HighBit": 11,
      "ImageOrientationPatient": [0.99954619326915, 0.01500421553618, -0.0261205098973, -0.0279198582648, 0.78698617810951, -0.6163385733337],
      "ImagePositionPatient": [-833.28929217343, -718.36932447264, 517.39528402832],
      "ImageType": [
        "ORIGINAL",
        "PRIMARY",
        "M",
        "ND",
        "MOSAIC"
],
      "ImagedNucleus": "1H",
      "ImagingFrequency": 123.257406,
      "InPlanePhaseEncodingDirection": "COL",
      "MRAcquisitionType": "2D",
      "MagneticFieldStrength": 3.0,
      "Manufacturer": "SIEMENS",
      "ManufacturerModelName": "Prisma",
      "Modality": "MR",
      "NumberOfAverages": 1.0,
      "NumberOfPhaseEncodingSteps": 95,
      "PercentPhaseFieldOfView": 100.0,
      "PercentSampling": 100.0,
      "PerformedProcedureStepStartTime": "105513.447000",
      "PhotometricInterpretation": "MONOCHROME2",
      "PixelBandwidth": 2205.0,
      "PixelRepresentation": 0,
      "PixelSpacing": [1.990740776062, 1.990740776062],
      "PositionReferenceIndicator": "",
      "ProtocolName": "Run6_bold_s4_TR1.28",
      "RepetitionTime": 1280.0,
      "Rows": 864,
      "SAR": 0.07176850265843,
      "SamplesPerPixel": 1,
      "ScanOptions": [
        "PFP",
        "FS"
],
      "ScanningSequence": "EP",
      "SequenceName": "*epfid2d1_108",
      "SequenceVariant": "SK",
      "SeriesDescription": "Run6_bold_s4_TR1.28",
      "SeriesNumber": 14,
      "SeriesTime": "120437.064000",
      "SliceLocation": -45.290295829993,
      "SliceThickness": 2.0,
      "SmallestImagePixelValue": 0,
      "SoftwareVersions": "syngo MR E11",
      "SpacingBetweenSlices": 2.0000000504576,
      "SpecificCharacterSet": "ISO_IR 100",
      "StudyID": "1",
      "StudyTime": "105513.295000",
      "TransmitCoilName": "Body",
      "VariableFlipAngleFlag": "N",
      "WindowCenterWidthExplanation": "Algo1",
      "dBdt": 0.0},
    "slices": {}
  },
  "time": {
    "samples": {
      "AcquisitionNumber": [1, 2, 3, 4, 5, 6, 7, 8, 9, 10, 11, 12, 13, 14, 15, 16, 17, 18, 19, 20, 21, 22, 23, 24, 25, 26, 27, 28, 29, 30, 31, 32, 33, 34, 35, 36, 37, 38, 39, 40, 41, 42, 43, 44, 45, 46, 47, 48, 49, 50, 51, 52, 53, 54, 55, 56, 57, 58, 59, 60, 61, 62, 63, 64, 65, 66, 67, 68, 69, 70, 71, 72, 73, 74, 75, 76, 77, 78, 79, 80, 81, 82, 83, 84, 85, 86, 87, 88, 89, 90, 91, 92, 93, 94, 95, 96, 97, 98, 99, 100, 101, 102, 103, 104, 105, 106, 107, 108, 109, 110, 111, 112, 113, 114, 115, 116, 117, 118, 119, 120, 121, 122, 123, 124, 125, 126, 127, 128, 129, 130, 131, 132, 133, 134, 135, 136, 137, 138, 139, 140, 141, 142, 143, 144, 145, 146, 147, 148, 149, 150, 151, 152, 153, 154, 155, 156, 157, 158, 159, 160, 161, 162, 163, 164, 165, 166, 167, 168, 169, 170, 171, 172, 173, 174, 175, 176, 177, 178, 179, 180, 181, 182, 183, 184, 185, 186, 187, 188, 189, 190, 191, 192, 193, 194, 195, 196, 197, 198, 199, 200, 201, 202, 203, 204, 205, 206, 207, 208, 209, 210, 211, 212, 213, 214, 215, 216, 217, 218, 219, 220, 221, 222, 223, 224, 225, 226, 227, 228, 229, 230, 231, 232, 233, 234, 235, 236, 237, 238, 239, 240, 241, 242, 243, 244, 245, 246, 247, 248, 249, 250, 251, 252, 253, 254, 255, 256, 257, 258, 259, 260, 261, 262, 263, 264, 265, 266, 267, 268, 269, 270, 271, 272, 273, 274, 275, 276, 277, 278, 279, 280, 281, 282, 283, 284, 285, 286, 287, 288, 289, 290, 291, 292, 293, 294, 295, 296, 297, 298, 299, 300, 301, 302, 303, 304, 305, 306, 307, 308, 309, 310, 311, 312, 313, 314, 315, 316, 317, 318, 319, 320, 321, 322, 323, 324, 325, 326, 327, 328, 329, 330, 331, 332, 333, 334, 335, 336, 337, 338, 339, 340, 341, 342, 343, 344, 345, 346, 347, 348, 349, 350, 351, 352, 353, 354, 355, 356, 357, 358, 359, 360, 361, 362, 363, 364, 365, 366, 367, 368, 369, 370, 371, 372, 373],
      "AcquisitionTime": ["120432.920000", "120434.200000", "120435.480000", "120436.760000", "120438.040000", "120439.320000", "120440.600000", "120441.880000", "120443.160000", "120444.440000", "120445.720000", "120447.000000", "120448.280000", "120449.560000", "120450.840000", "120452.120000", "120453.400000", "120454.680000", "120455.960000", "120457.240000", "120458.520000", "120459.800000", "120501.080000", "120502.360000", "120503.640000", "120504.920000", "120506.200000", "120507.480000", "120508.760000", "120510.040000", "120511.320000", "120512.600000", "120513.880000", "120515.160000", "120516.440000", "120517.720000", "120519.000000", "120520.280000", "120521.560000", "120522.840000", "120524.120000", "120525.400000", "120526.680000", "120527.960000", "120529.240000", "120530.520000", "120531.800000", "120533.080000", "120534.360000", "120535.640000", "120536.920000", "120538.200000", "120539.480000", "120540.760000", "120542.040000", "120543.320000", "120544.600000", "120545.880000", "120547.160000", "120548.440000", "120549.720000", "120551.000000", "120552.280000", "120553.560000", "120554.840000", "120556.120000", "120557.400000", "120558.680000", "120559.960000", "120601.240000", "120602.520000", "120603.800000", "120605.080000", "120606.360000", "120607.640000", "120608.920000", "120610.200000", "120611.480000", "120612.760000", "120614.040000", "120615.320000", "120616.600000", "120617.880000", "120619.160000", "120620.440000", "120621.720000", "120623.000000", "120624.280000", "120625.560000", "120626.840000", "120628.120000", "120629.400000", "120630.680000", "120631.960000", "120633.240000", "120634.520000", "120635.800000", "120637.080000", "120638.360000", "120639.640000", "120640.920000", "120642.200000", "120643.480000", "120644.760000", "120646.040000", "120647.320000", "120648.600000", "120649.880000", "120651.160000", "120652.440000", "120653.720000", "120655.000000", "120656.280000", "120657.560000", "120658.840000", "120700.120000", "120701.400000", "120702.680000", "120703.960000", "120705.240000", "120706.520000", "120707.800000", "120709.080000", "120710.360000", "120711.640000", "120712.920000", "120714.200000", "120715.480000", "120716.760000", "120718.040000", "120719.320000", "120720.600000", "120721.880000", "120723.160000", "120724.440000", "120725.720000", "120727.000000", "120728.280000", "120729.560000", "120730.840000", "120732.120000", "120733.400000", "120734.680000", "120735.960000", "120737.240000", "120738.520000", "120739.800000", "120741.080000", "120742.360000", "120743.640000", "120744.920000", "120746.200000", "120747.480000", "120748.760000", "120750.040000", "120751.320000", "120752.600000", "120753.880000", "120755.160000", "120756.440000", "120757.720000", "120759.000000", "120800.280000", "120801.560000", "120802.840000", "120804.120000", "120805.400000", "120806.680000", "120807.960000", "120809.240000", "120810.520000", "120811.800000", "120813.080000", "120814.360000", "120815.640000", "120816.920000", "120818.200000", "120819.480000", "120820.760000", "120822.040000", "120823.320000", "120824.600000", "120825.880000", "120827.160000", "120828.440000", "120829.720000", "120831.000000", "120832.280000", "120833.560000", "120834.840000", "120836.120000", "120837.400000", "120838.680000", "120839.960000", "120841.240000", "120842.520000", "120843.800000", "120845.080000", "120846.360000", "120847.640000", "120848.920000", "120850.200000", "120851.480000", "120852.760000", "120854.040000", "120855.320000", "120856.600000", "120857.880000", "120859.160000", "120900.440000", "120901.720000", "120903.000000", "120904.280000", "120905.560000", "120906.840000", "120908.120000", "120909.400000", "120910.680000", "120911.960000", "120913.240000", "120914.520000", "120915.800000", "120917.080000", "120918.360000", "120919.640000", "120920.920000", "120922.200000", "120923.480000", "120924.760000", "120926.040000", "120927.320000", "120928.600000", "120929.880000", "120931.160000", "120932.440000", "120933.720000", "120935.000000", "120936.280000", "120937.560000", "120938.840000", "120940.120000", "120941.400000", "120942.680000", "120943.960000", "120945.240000", "120946.520000", "120947.800000", "120949.080000", "120950.360000", "120951.640000", "120952.920000", "120954.200000", "120955.480000", "120956.760000", "120958.040000", "120959.320000", "121000.600000", "121001.880000", "121003.160000", "121004.440000", "121005.720000", "121007.000000", "121008.280000", "121009.560000", "121010.840000", "121012.120000", "121013.400000", "121014.680000", "121015.960000", "121017.240000", "121018.520000", "121019.800000", "121021.080000", "121022.360000", "121023.640000", "121024.920000", "121026.200000", "121027.480000", "121028.760000", "121030.040000", "121031.320000", "121032.600000", "121033.880000", "121035.160000", "121036.440000", "121037.720000", "121039.000000", "121040.280000", "121041.560000", "121042.840000", "121044.120000", "121045.400000", "121046.680000", "121047.960000", "121049.240000", "121050.520000", "121051.800000", "121053.080000", "121054.360000", "121055.640000", "121056.920000", "121058.200000", "121059.480000", "121100.760000", "121102.040000", "121103.320000", "121104.600000", "121105.880000", "121107.160000", "121108.440000", "121109.720000", "121111.000000", "121112.280000", "121113.560000", "121114.840000", "121116.120000", "121117.400000", "121118.680000", "121119.960000", "121121.240000", "121122.520000", "121123.800000", "121125.080000", "121126.360000", "121127.640000", "121128.920000", "121130.200000", "121131.480000", "121132.760000", "121134.040000", "121135.320000", "121136.600000", "121137.880000", "121139.160000", "121140.440000", "121141.720000", "121143.000000", "121144.280000", "121145.560000", "121146.840000", "121148.120000", "121149.400000", "121150.680000", "121151.960000", "121153.240000", "121154.520000", "121155.800000", "121157.080000", "121158.360000", "121159.640000", "121200.920000", "121202.200000", "121203.480000", "121204.760000", "121206.040000", "121207.320000", "121208.600000", "121209.880000", "121211.160000", "121212.440000", "121213.720000", "121215.000000", "121216.280000", "121217.560000", "121218.840000", "121220.120000", "121221.400000", "121222.680000", "121223.960000", "121225.240000", "121226.520000", "121227.800000", "121229.080000"],
      "ContentTime": ["120437.067000", "120437.071000", "120517.064000", "120517.067000", "120517.070000", "120517.073000", "120517.076000", "120517.078000", "120517.081000", "120517.084000", "120517.087000", "120517.090000", "120517.093000", "120517.096000", "120517.099000", "120517.102000", "120517.104000", "120517.109000", "120517.112000", "120517.115000", "120517.118000", "120517.121000", "120517.124000", "120517.127000", "120517.130000", "120517.133000", "120517.136000", "120517.138000", "120517.141000", "120517.144000", "120517.147000", "120517.150000", "120517.153000", "120517.156000", "120557.063000", "120557.066000", "120557.069000", "120557.072000", "120557.075000", "120557.078000", "120557.081000", "120557.083000", "120557.086000", "120557.089000", "120557.092000", "120557.095000", "120557.098000", "120557.100000", "120557.103000", "120557.106000", "120557.109000", "120557.112000", "120557.115000", "120557.118000", "120557.121000", "120557.124000", "120557.127000", "120557.138000", "120557.140000", "120557.143000", "120557.146000", "120557.149000", "120557.152000", "120557.155000", "120557.158000", "120637.063000", "120637.074000", "120637.077000", "120637.080000", "120637.083000", "120637.086000", "120637.089000", "120637.092000", "120637.095000", "120637.097000", "120637.100000", "120637.103000", "120637.106000", "120637.109000", "120637.112000", "120637.115000", "120637.117000", "120637.120000", "120637.123000", "120637.126000", "120637.129000", "120637.132000", "120637.142000", "120637.145000", "120637.148000", "120637.151000", "120637.154000", "120637.157000", "120637.159000", "120637.162000", "120637.165000", "120717.064000", "120717.067000", "120717.071000", "120717.074000", "120717.076000", "120717.079000", "120717.082000", "120717.085000", "120717.088000", "120717.091000", "120717.094000", "120717.097000", "120717.100000", "120717.103000", "120717.106000", "120717.108000", "120717.118000", "120717.121000", "120717.124000", "120717.127000", "120717.130000", "120717.133000", "120717.136000", "120717.139000", "120717.141000", "120717.144000", "120717.147000", "120717.150000", "120717.153000", "120717.156000", "120717.159000", "120757.074000", "120757.077000", "120757.080000", "120757.083000", "120757.085000", "120757.088000", "120757.091000", "120757.094000", "120757.097000", "120757.100000", "120757.103000", "120757.106000", "120757.109000", "120757.112000", "120757.114000", "120757.117000", "120757.120000", "120757.123000", "120757.126000", "120757.129000", "120757.132000", "120757.135000", "120757.138000", "120757.140000", "120757.143000", "120757.146000", "120757.149000", "120757.152000", "120757.155000", "120757.158000", "120757.161000", "120757.163000", "120837.063000", "120837.066000", "120837.069000", "120837.072000", "120837.075000", "120837.078000", "120837.081000", "120837.084000", "120837.086000", "120837.089000", "120837.092000", "120837.095000", "120837.098000", "120837.101000", "120837.104000", "120837.107000", "120837.110000", "120837.112000", "120837.115000", "120837.118000", "120837.121000", "120837.124000", "120837.127000", "120837.130000", "120837.133000", "120837.136000", "120837.138000", "120837.142000", "120837.144000", "120837.147000", "120837.150000", "120917.063000", "120917.066000", "120917.069000", "120917.072000", "120917.075000", "120917.078000", "120917.081000", "120917.084000", "120917.087000", "120917.090000", "120917.093000", "120917.096000", "120917.099000", "120917.101000", "120917.105000", "120917.107000", "120917.110000", "120917.113000", "120917.116000", "120917.119000", "120917.122000", "120917.125000", "120917.128000", "120917.131000", "120917.133000", "120917.136000", "120917.139000", "120917.142000", "120917.145000", "120917.148000", "120917.151000", "120957.064000", "120957.073000", "120957.076000", "120957.079000", "120957.082000", "120957.085000", "120957.088000", "120957.091000", "120957.094000", "120957.097000", "120957.100000", "120957.103000", "120957.106000", "120957.109000", "120957.112000", "120957.115000", "120957.117000", "120957.120000", "120957.123000", "120957.126000", "120957.129000", "120957.132000", "120957.135000", "120957.138000", "120957.141000", "120957.145000", "120957.148000", "120957.151000", "120957.154000", "120957.157000", "120957.159000", "121037.063000", "121037.066000", "121037.069000", "121037.072000", "121037.075000", "121037.078000", "121037.081000", "121037.084000", "121037.087000", "121037.090000", "121037.093000", "121037.095000", "121037.098000", "121037.101000", "121037.104000", "121037.107000", "121037.110000", "121037.113000", "121037.116000", "121037.119000", "121037.122000", "121037.124000", "121037.127000", "121037.130000", "121037.133000", "121037.136000", "121037.139000", "121037.142000", "121037.145000", "121037.148000", "121037.151000", "121037.153000", "121117.063000", "121117.066000", "121117.070000", "121117.073000", "121117.076000", "121117.079000", "121117.082000", "121117.085000", "121117.088000", "121117.091000", "121117.094000", "121117.097000", "121117.100000", "121117.103000", "121117.107000", "121117.110000", "121117.113000", "121117.116000", "121117.119000", "121117.122000", "121117.125000", "121117.128000", "121117.131000", "121117.134000", "121117.137000", "121117.140000", "121117.143000", "121117.146000", "121117.155000", "121117.158000", "121117.161000", "121157.064000", "121157.067000", "121157.070000", "121157.073000", "121157.092000", "121157.094000", "121157.097000", "121157.100000", "121157.103000", "121157.106000", "121157.109000", "121157.111000", "121157.114000", "121157.117000", "121157.120000", "121157.123000", "121157.126000", "121157.129000", "121157.132000", "121157.135000", "121157.138000", "121157.140000", "121157.143000", "121157.146000", "121157.149000", "121157.152000", "121157.155000", "121157.158000", "121157.160000", "121157.163000", "121157.166000", "121230.652000", "121230.655000", "121230.658000", "121230.661000", "121230.664000", "121230.667000", "121230.669000", "121230.672000", "121230.675000", "121230.678000", "121230.681000", "121230.684000", "121230.687000", "121230.690000", "121230.692000", "121230.695000", "121230.698000", "121230.701000", "121230.704000", "121230.707000", "121230.710000", "121230.712000", "121230.715000", "121230.718000", "121230.721000", "121230.724000", "121230.727000"],
      "InstanceCreationTime": ["120437.067000", "120437.071000", "120517.064000", "120517.067000", "120517.070000", "120517.073000", "120517.076000", "120517.078000", "120517.081000", "120517.084000", "120517.087000", "120517.090000", "120517.093000", "120517.096000", "120517.099000", "120517.102000", "120517.104000", "120517.109000", "120517.112000", "120517.115000", "120517.118000", "120517.121000", "120517.124000", "120517.127000", "120517.130000", "120517.133000", "120517.136000", "120517.138000", "120517.141000", "120517.144000", "120517.147000", "120517.150000", "120517.153000", "120517.156000", "120557.063000", "120557.066000", "120557.069000", "120557.072000", "120557.075000", "120557.078000", "120557.081000", "120557.083000", "120557.086000", "120557.089000", "120557.092000", "120557.095000", "120557.098000", "120557.100000", "120557.103000", "120557.106000", "120557.109000", "120557.112000", "120557.115000", "120557.118000", "120557.121000", "120557.124000", "120557.127000", "120557.138000", "120557.140000", "120557.143000", "120557.146000", "120557.149000", "120557.152000", "120557.155000", "120557.158000", "120637.063000", "120637.074000", "120637.077000", "120637.080000", "120637.083000", "120637.086000", "120637.089000", "120637.092000", "120637.095000", "120637.097000", "120637.100000", "120637.103000", "120637.106000", "120637.109000", "120637.112000", "120637.115000", "120637.117000", "120637.120000", "120637.123000", "120637.126000", "120637.129000", "120637.132000", "120637.142000", "120637.145000", "120637.148000", "120637.151000", "120637.154000", "120637.157000", "120637.159000", "120637.162000", "120637.165000", "120717.064000", "120717.067000", "120717.071000", "120717.074000", "120717.076000", "120717.079000", "120717.082000", "120717.085000", "120717.088000", "120717.091000", "120717.094000", "120717.097000", "120717.100000", "120717.103000", "120717.106000", "120717.108000", "120717.118000", "120717.121000", "120717.124000", "120717.127000", "120717.130000", "120717.133000", "120717.136000", "120717.139000", "120717.141000", "120717.144000", "120717.147000", "120717.150000", "120717.153000", "120717.156000", "120717.159000", "120757.074000", "120757.077000", "120757.080000", "120757.083000", "120757.085000", "120757.088000", "120757.091000", "120757.094000", "120757.097000", "120757.100000", "120757.103000", "120757.106000", "120757.109000", "120757.112000", "120757.114000", "120757.117000", "120757.120000", "120757.123000", "120757.126000", "120757.129000", "120757.132000", "120757.135000", "120757.138000", "120757.140000", "120757.143000", "120757.146000", "120757.149000", "120757.152000", "120757.155000", "120757.158000", "120757.161000", "120757.163000", "120837.063000", "120837.066000", "120837.069000", "120837.072000", "120837.075000", "120837.078000", "120837.081000", "120837.084000", "120837.086000", "120837.089000", "120837.092000", "120837.095000", "120837.098000", "120837.101000", "120837.104000", "120837.107000", "120837.110000", "120837.112000", "120837.115000", "120837.118000", "120837.121000", "120837.124000", "120837.127000", "120837.130000", "120837.133000", "120837.136000", "120837.138000", "120837.142000", "120837.144000", "120837.147000", "120837.150000", "120917.063000", "120917.066000", "120917.069000", "120917.072000", "120917.075000", "120917.078000", "120917.081000", "120917.084000", "120917.087000", "120917.090000", "120917.093000", "120917.096000", "120917.099000", "120917.101000", "120917.105000", "120917.107000", "120917.110000", "120917.113000", "120917.116000", "120917.119000", "120917.122000", "120917.125000", "120917.128000", "120917.131000", "120917.133000", "120917.136000", "120917.139000", "120917.142000", "120917.145000", "120917.148000", "120917.151000", "120957.064000", "120957.073000", "120957.076000", "120957.079000", "120957.082000", "120957.085000", "120957.088000", "120957.091000", "120957.094000", "120957.097000", "120957.100000", "120957.103000", "120957.106000", "120957.109000", "120957.112000", "120957.115000", "120957.117000", "120957.120000", "120957.123000", "120957.126000", "120957.129000", "120957.132000", "120957.135000", "120957.138000", "120957.141000", "120957.145000", "120957.148000", "120957.151000", "120957.154000", "120957.157000", "120957.159000", "121037.063000", "121037.066000", "121037.069000", "121037.072000", "121037.075000", "121037.078000", "121037.081000", "121037.084000", "121037.087000", "121037.090000", "121037.093000", "121037.095000", "121037.098000", "121037.101000", "121037.104000", "121037.107000", "121037.110000", "121037.113000", "121037.116000", "121037.119000", "121037.122000", "121037.124000", "121037.127000", "121037.130000", "121037.133000", "121037.136000", "121037.139000", "121037.142000", "121037.145000", "121037.148000", "121037.151000", "121037.153000", "121117.063000", "121117.066000", "121117.070000", "121117.073000", "121117.076000", "121117.079000", "121117.082000", "121117.085000", "121117.088000", "121117.091000", "121117.094000", "121117.097000", "121117.100000", "121117.103000", "121117.107000", "121117.110000", "121117.113000", "121117.116000", "121117.119000", "121117.122000", "121117.125000", "121117.128000", "121117.131000", "121117.134000", "121117.137000", "121117.140000", "121117.143000", "121117.146000", "121117.155000", "121117.158000", "121117.161000", "121157.064000", "121157.067000", "121157.070000", "121157.073000", "121157.092000", "121157.094000", "121157.097000", "121157.100000", "121157.103000", "121157.106000", "121157.109000", "121157.111000", "121157.114000", "121157.117000", "121157.120000", "121157.123000", "121157.126000", "121157.129000", "121157.132000", "121157.135000", "121157.138000", "121157.140000", "121157.143000", "121157.146000", "121157.149000", "121157.152000", "121157.155000", "121157.158000", "121157.160000", "121157.163000", "121157.166000", "121230.652000", "121230.655000", "121230.658000", "121230.661000", "121230.664000", "121230.667000", "121230.669000", "121230.672000", "121230.675000", "121230.678000", "121230.681000", "121230.684000", "121230.687000", "121230.690000", "121230.692000", "121230.695000", "121230.698000", "121230.701000", "121230.704000", "121230.707000", "121230.710000", "121230.712000", "121230.715000", "121230.718000", "121230.721000", "121230.724000", "121230.727000"],
      "InstanceNumber": [1, 2, 3, 4, 5, 6, 7, 8, 9, 10, 11, 12, 13, 14, 15, 16, 17, 18, 19, 20, 21, 22, 23, 24, 25, 26, 27, 28, 29, 30, 31, 32, 33, 34, 35, 36, 37, 38, 39, 40, 41, 42, 43, 44, 45, 46, 47, 48, 49, 50, 51, 52, 53, 54, 55, 56, 57, 58, 59, 60, 61, 62, 63, 64, 65, 66, 67, 68, 69, 70, 71, 72, 73, 74, 75, 76, 77, 78, 79, 80, 81, 82, 83, 84, 85, 86, 87, 88, 89, 90, 91, 92, 93, 94, 95, 96, 97, 98, 99, 100, 101, 102, 103, 104, 105, 106, 107, 108, 109, 110, 111, 112, 113, 114, 115, 116, 117, 118, 119, 120, 121, 122, 123, 124, 125, 126, 127, 128, 129, 130, 131, 132, 133, 134, 135, 136, 137, 138, 139, 140, 141, 142, 143, 144, 145, 146, 147, 148, 149, 150, 151, 152, 153, 154, 155, 156, 157, 158, 159, 160, 161, 162, 163, 164, 165, 166, 167, 168, 169, 170, 171, 172, 173, 174, 175, 176, 177, 178, 179, 180, 181, 182, 183, 184, 185, 186, 187, 188, 189, 190, 191, 192, 193, 194, 195, 196, 197, 198, 199, 200, 201, 202, 203, 204, 205, 206, 207, 208, 209, 210, 211, 212, 213, 214, 215, 216, 217, 218, 219, 220, 221, 222, 223, 224, 225, 226, 227, 228, 229, 230, 231, 232, 233, 234, 235, 236, 237, 238, 239, 240, 241, 242, 243, 244, 245, 246, 247, 248, 249, 250, 251, 252, 253, 254, 255, 256, 257, 258, 259, 260, 261, 262, 263, 264, 265, 266, 267, 268, 269, 270, 271, 272, 273, 274, 275, 276, 277, 278, 279, 280, 281, 282, 283, 284, 285, 286, 287, 288, 289, 290, 291, 292, 293, 294, 295, 296, 297, 298, 299, 300, 301, 302, 303, 304, 305, 306, 307, 308, 309, 310, 311, 312, 313, 314, 315, 316, 317, 318, 319, 320, 321, 322, 323, 324, 325, 326, 327, 328, 329, 330, 331, 332, 333, 334, 335, 336, 337, 338, 339, 340, 341, 342, 343, 344, 345, 346, 347, 348, 349, 350, 351, 352, 353, 354, 355, 356, 357, 358, 359, 360, 361, 362, 363, 364, 365, 366, 367, 368, 369, 370, 371, 372, 373],
