{
  "AcquisitionMatrixPE": 108,
  "AcquisitionNumber": 1,
  "AcquisitionTime": "11:36:53.962500",
  "BandwidthPerPixelPhaseEncode": 15.964,
  "BaseResolution": 108,
  "BodyPartExamined": "BRAIN",
  "ConsistencyInfo": "N4_VE11C_LATEST_20160120",
  "ConversionSoftware": "dcm2niix",
  "ConversionSoftwareVersion": "v1.0.20180622 GCC6.3.0",
  "DerivedVendorReportedEchoSpacing": 0.000580009,
  "DeviceSerialNumber": "66054",
  "DwellTime": 2.1e-06,
  "EchoTime": 0.031,
  "EchoTrainLength": 95,
  "EffectiveEchoSpacing": 0.000580009,
  "FlipAngle": 64,
  "ImageOrientationPatientDICOM": [0.999546, 0.0150042, -0.0261205, -0.0279199, 0.786986, -0.616339],
  "ImageType": [
    "ORIGINAL",
    "PRIMARY",
    "M",
    "ND",
    "MOSAIC"
],
  "InPlanePhaseEncodingDirectionDICOM": "COL",
  "InstitutionAddress": "Chemin_des_Mines_9_Geneve_District_CH_1211",
  "InstitutionName": "Fondation_Campus_Biotech_Geneva",
  "InstitutionalDepartmentName": "Department",
  "MRAcquisitionType": "2D",
  "MagneticFieldStrength": 3,
  "Manufacturer": "Siemens",
  "ManufacturersModelName": "Prisma",
  "Modality": "MR",
  "MultibandAccelerationFactor": 4,
  "PartialFourier": 0.875,
  "PatientPosition": "HFS",
  "PercentPhaseFOV": 100,
  "PhaseEncodingDirection": "j-",
  "PhaseEncodingSteps": 95,
  "PhaseResolution": 1,
  "PixelBandwidth": 2205,
  "ProcedureStepDescription": "J.DRM_Michael",
  "ProtocolName": "Run4_bold_s4_TR1.28",
  "PulseSequenceDetails": "%SiemensSeq%_ep2d_bold",
  "ReceiveCoilActiveElements": "HC1-7;NC1,2",
  "ReceiveCoilName": "HeadNeck_64",
  "ReconMatrixPE": 108,
  "RepetitionTime": 1.28,
  "SAR": 0.0717685,
  "ScanOptions": "PFP_FS",
  "ScanningSequence": "EP",
  "SequenceName": "_epfid2d1_108",
  "SequenceVariant": "SK",
  "SeriesDescription": "Run4_bold_s4_TR1.28",
  "SeriesNumber": 9,
  "ShimSetting": [-1253, -11645, 6433, 703, 214, 6, 154, 69],
  "SliceThickness": 2,
  "SliceTiming": [0.945, 0, 0.63, 0.08, 0.71, 0.1575, 0.7875, 0.2375, 0.8675, 0.395, 1.025, 0.4725, 1.1025, 0.5525, 1.1825, 0.315, 0.945, 0, 0.63, 0.08, 0.71, 0.1575, 0.7875, 0.2375, 0.8675, 0.395, 1.025, 0.4725, 1.1025, 0.5525, 1.1825, 0.315, 0.945, 0, 0.63, 0.08, 0.71, 0.1575, 0.7875, 0.2375, 0.8675, 0.395, 1.025, 0.4725, 1.1025, 0.5525, 1.1825, 0.315, 0.945, 0, 0.63, 0.08, 0.71, 0.1575, 0.7875, 0.2375, 0.8675, 0.395, 1.025, 0.4725, 1.1025, 0.5525, 1.1825, 0.315],
  "SoftwareVersions": "syngo_MR_E11",
  "SpacingBetweenSlices": 2,
  "StationName": "AWP66054",
  "TaskName": "main",
  "TotalReadoutTime": 0.0620609,
  "TxRefAmp": 252.019,
  "dcmmeta_affine": [
    [-1.989837408065796, -0.05558120086789131, -0.022617608308792114, 108.08765411376953],
    [-0.029869504272937775, 1.566685438156128, -1.2335762977600098, -52.76380157470703],
    [-0.05199916288256645, 1.2269703149795532, 1.5740959644317627, -97.34101104736328],
    [0.0, 0.0, 0.0, 1.0]
],
  "dcmmeta_reorient_transform": [
    [0.0, -1.0, 0.0, 107.0],
    [1.0, 0.0, 0.0, 0.0],
    [0.0, 0.0, 1.0, 0.0],
    [0.0, 0.0, 0.0, 1.0]
],
  "dcmmeta_shape": [108, 108, 64, 373],
  "dcmmeta_slice_dim": 2,
  "dcmmeta_version": 0.6,
  "global": {
    "const": {
      "AccessionNumber": "",
      "AcquisitionMatrix": [108, 0, 0, 108],
      "AngioFlag": "N",
      "BitsAllocated": 16,
      "BitsStored": 12,
      "BodyPartExamined": "BRAIN",
      "Columns": 864,
      "EchoNumbers": 1,
      "EchoTime": 31.0,
      "EchoTrainLength": 95,
      "FlipAngle": 64.0,
      "HighBit": 11,
      "ImageOrientationPatient": [0.99954619326915, 0.01500421553618, -0.0261205098973, -0.0279198582648, 0.78698617810951, -0.6163385733337],
      "ImagePositionPatient": [-833.28929217343, -718.36932447264, 517.39528402832],
      "ImageType": [
        "ORIGINAL",
        "PRIMARY",
        "M",
        "ND",
        "MOSAIC"
],
      "ImagedNucleus": "1H",
      "ImagingFrequency": 123.2574,
      "InPlanePhaseEncodingDirection": "COL",
      "MRAcquisitionType": "2D",
      "MagneticFieldStrength": 3.0,
      "Manufacturer": "SIEMENS",
      "ManufacturerModelName": "Prisma",
      "Modality": "MR",
      "NumberOfAverages": 1.0,
      "NumberOfPhaseEncodingSteps": 95,
      "PercentPhaseFieldOfView": 100.0,
      "PercentSampling": 100.0,
      "PerformedProcedureStepStartTime": "105513.447000",
      "PhotometricInterpretation": "MONOCHROME2",
      "PixelBandwidth": 2205.0,
      "PixelRepresentation": 0,
      "PixelSpacing": [1.990740776062, 1.990740776062],
      "PositionReferenceIndicator": "",
      "ProtocolName": "Run4_bold_s4_TR1.28",
      "RepetitionTime": 1280.0,
      "Rows": 864,
      "SAR": 0.07176850265843,
      "SamplesPerPixel": 1,
      "ScanOptions": [
        "PFP",
        "FS"
],
      "ScanningSequence": "EP",
      "SequenceName": "*epfid2d1_108",
      "SequenceVariant": "SK",
      "SeriesDescription": "Run4_bold_s4_TR1.28",
      "SeriesNumber": 9,
      "SeriesTime": "113736.992000",
      "SliceLocation": -45.290295829993,
      "SliceThickness": 2.0,
      "SmallestImagePixelValue": 0,
      "SoftwareVersions": "syngo MR E11",
      "SpacingBetweenSlices": 2.0000000504576,
      "SpecificCharacterSet": "ISO_IR 100",
      "StudyID": "1",
      "StudyTime": "105513.295000",
      "TransmitCoilName": "Body",
      "VariableFlipAngleFlag": "N",
      "WindowCenterWidthExplanation": "Algo1",
      "dBdt": 0.0},
    "slices": {}
  },
  "time": {
    "samples": {
      "AcquisitionNumber": [1, 2, 3, 4, 5, 6, 7, 8, 9, 10, 11, 12, 13, 14, 15, 16, 17, 18, 19, 20, 21, 22, 23, 24, 25, 26, 27, 28, 29, 30, 31, 32, 33, 34, 35, 36, 37, 38, 39, 40, 41, 42, 43, 44, 45, 46, 47, 48, 49, 50, 51, 52, 53, 54, 55, 56, 57, 58, 59, 60, 61, 62, 63, 64, 65, 66, 67, 68, 69, 70, 71, 72, 73, 74, 75, 76, 77, 78, 79, 80, 81, 82, 83, 84, 85, 86, 87, 88, 89, 90, 91, 92, 93, 94, 95, 96, 97, 98, 99, 100, 101, 102, 103, 104, 105, 106, 107, 108, 109, 110, 111, 112, 113, 114, 115, 116, 117, 118, 119, 120, 121, 122, 123, 124, 125, 126, 127, 128, 129, 130, 131, 132, 133, 134, 135, 136, 137, 138, 139, 140, 141, 142, 143, 144, 145, 146, 147, 148, 149, 150, 151, 152, 153, 154, 155, 156, 157, 158, 159, 160, 161, 162, 163, 164, 165, 166, 167, 168, 169, 170, 171, 172, 173, 174, 175, 176, 177, 178, 179, 180, 181, 182, 183, 184, 185, 186, 187, 188, 189, 190, 191, 192, 193, 194, 195, 196, 197, 198, 199, 200, 201, 202, 203, 204, 205, 206, 207, 208, 209, 210, 211, 212, 213, 214, 215, 216, 217, 218, 219, 220, 221, 222, 223, 224, 225, 226, 227, 228, 229, 230, 231, 232, 233, 234, 235, 236, 237, 238, 239, 240, 241, 242, 243, 244, 245, 246, 247, 248, 249, 250, 251, 252, 253, 254, 255, 256, 257, 258, 259, 260, 261, 262, 263, 264, 265, 266, 267, 268, 269, 270, 271, 272, 273, 274, 275, 276, 277, 278, 279, 280, 281, 282, 283, 284, 285, 286, 287, 288, 289, 290, 291, 292, 293, 294, 295, 296, 297, 298, 299, 300, 301, 302, 303, 304, 305, 306, 307, 308, 309, 310, 311, 312, 313, 314, 315, 316, 317, 318, 319, 320, 321, 322, 323, 324, 325, 326, 327, 328, 329, 330, 331, 332, 333, 334, 335, 336, 337, 338, 339, 340, 341, 342, 343, 344, 345, 346, 347, 348, 349, 350, 351, 352, 353, 354, 355, 356, 357, 358, 359, 360, 361, 362, 363, 364, 365, 366, 367, 368, 369, 370, 371, 372, 373],
      "AcquisitionTime": ["113653.962500", "113655.242500", "113656.522500", "113657.802500", "113659.082500", "113700.362500", "113701.642500", "113702.922500", "113704.202500", "113705.482500", "113706.762500", "113708.042500", "113709.322500", "113710.602500", "113711.882500", "113713.162500", "113714.442500", "113715.722500", "113717.002500", "113718.282500", "113719.562500", "113720.842500", "113722.122500", "113723.402500", "113724.682500", "113725.962500", "113727.242500", "113728.522500", "113729.802500", "113731.082500", "113732.362500", "113733.642500", "113734.922500", "113736.202500", "113737.482500", "113738.762500", "113740.042500", "113741.322500", "113742.602500", "113743.882500", "113745.162500", "113746.442500", "113747.722500", "113749.002500", "113750.282500", "113751.562500", "113752.842500", "113754.122500", "113755.402500", "113756.682500", "113757.962500", "113759.242500", "113800.522500", "113801.802500", "113803.082500", "113804.362500", "113805.642500", "113806.922500", "113808.202500", "113809.482500", "113810.762500", "113812.042500", "113813.322500", "113814.602500", "113815.882500", "113817.162500", "113818.442500", "113819.722500", "113821.002500", "113822.282500", "113823.562500", "113824.842500", "113826.122500", "113827.402500", "113828.682500", "113829.962500", "113831.242500", "113832.522500", "113833.802500", "113835.082500", "113836.362500", "113837.642500", "113838.922500", "113840.202500", "113841.482500", "113842.762500", "113844.042500", "113845.322500", "113846.602500", "113847.882500", "113849.162500", "113850.442500", "113851.722500", "113853.002500", "113854.282500", "113855.562500", "113856.842500", "113858.122500", "113859.402500", "113900.682500", "113901.962500", "113903.242500", "113904.522500", "113905.802500", "113907.082500", "113908.362500", "113909.642500", "113910.922500", "113912.202500", "113913.482500", "113914.762500", "113916.042500", "113917.322500", "113918.602500", "113919.882500", "113921.162500", "113922.442500", "113923.722500", "113925.002500", "113926.282500", "113927.562500", "113928.842500", "113930.122500", "113931.402500", "113932.682500", "113933.962500", "113935.242500", "113936.522500", "113937.802500", "113939.082500", "113940.362500", "113941.642500", "113942.922500", "113944.202500", "113945.482500", "113946.762500", "113948.042500", "113949.322500", "113950.602500", "113951.882500", "113953.162500", "113954.442500", "113955.722500", "113957.002500", "113958.282500", "113959.562500", "114000.842500", "114002.122500", "114003.402500", "114004.682500", "114005.962500", "114007.242500", "114008.522500", "114009.802500", "114011.082500", "114012.362500", "114013.642500", "114014.922500", "114016.202500", "114017.482500", "114018.762500", "114020.042500", "114021.322500", "114022.602500", "114023.882500", "114025.162500", "114026.442500", "114027.722500", "114029.002500", "114030.282500", "114031.562500", "114032.842500", "114034.122500", "114035.402500", "114036.682500", "114037.962500", "114039.242500", "114040.522500", "114041.802500", "114043.082500", "114044.362500", "114045.642500", "114046.922500", "114048.202500", "114049.482500", "114050.762500", "114052.042500", "114053.322500", "114054.602500", "114055.882500", "114057.162500", "114058.442500", "114059.722500", "114101.002500", "114102.282500", "114103.562500", "114104.842500", "114106.122500", "114107.402500", "114108.682500", "114109.962500", "114111.242500", "114112.522500", "114113.802500", "114115.082500", "114116.362500", "114117.642500", "114118.922500", "114120.202500", "114121.482500", "114122.762500", "114124.042500", "114125.322500", "114126.602500", "114127.882500", "114129.162500", "114130.442500", "114131.722500", "114133.002500", "114134.282500", "114135.562500", "114136.842500", "114138.122500", "114139.402500", "114140.682500", "114141.962500", "114143.242500", "114144.522500", "114145.802500", "114147.082500", "114148.362500", "114149.642500", "114150.922500", "114152.202500", "114153.482500", "114154.762500", "114156.042500", "114157.322500", "114158.602500", "114159.882500", "114201.162500", "114202.442500", "114203.722500", "114205.002500", "114206.282500", "114207.562500", "114208.842500", "114210.122500", "114211.402500", "114212.682500", "114213.962500", "114215.242500", "114216.522500", "114217.802500", "114219.082500", "114220.362500", "114221.642500", "114222.922500", "114224.202500", "114225.482500", "114226.762500", "114228.042500", "114229.322500", "114230.602500", "114231.882500", "114233.162500", "114234.442500", "114235.722500", "114237.002500", "114238.282500", "114239.562500", "114240.842500", "114242.122500", "114243.402500", "114244.682500", "114245.962500", "114247.242500", "114248.522500", "114249.802500", "114251.082500", "114252.362500", "114253.642500", "114254.922500", "114256.202500", "114257.482500", "114258.762500", "114300.042500", "114301.322500", "114302.602500", "114303.882500", "114305.162500", "114306.442500", "114307.722500", "114309.002500", "114310.282500", "114311.562500", "114312.842500", "114314.122500", "114315.402500", "114316.682500", "114317.962500", "114319.242500", "114320.522500", "114321.802500", "114323.082500", "114324.362500", "114325.642500", "114326.922500", "114328.202500", "114329.482500", "114330.762500", "114332.042500", "114333.322500", "114334.602500", "114335.882500", "114337.162500", "114338.442500", "114339.722500", "114341.002500", "114342.282500", "114343.562500", "114344.842500", "114346.122500", "114347.402500", "114348.682500", "114349.962500", "114351.242500", "114352.522500", "114353.802500", "114355.082500", "114356.362500", "114357.642500", "114358.922500", "114400.202500", "114401.482500", "114402.762500", "114404.042500", "114405.322500", "114406.602500", "114407.882500", "114409.162500", "114410.442500", "114411.722500", "114413.002500", "114414.282500", "114415.562500", "114416.842500", "114418.122500", "114419.402500", "114420.682500", "114421.962500", "114423.242500", "114424.522500", "114425.802500", "114427.082500", "114428.362500", "114429.642500", "114430.922500", "114432.202500", "114433.482500", "114434.762500", "114436.042500", "114437.322500", "114438.602500", "114439.882500", "114441.162500", "114442.442500", "114443.722500", "114445.002500", "114446.282500", "114447.562500", "114448.842500", "114450.122500"],
      "ContentTime": ["113736.996000", "113737.001000", "113737.010000", "113737.013000", "113737.018000", "113737.021000", "113737.024000", "113737.027000", "113737.030000", "113737.032000", "113737.035000", "113737.038000", "113737.041000", "113737.044000", "113737.047000", "113737.050000", "113737.053000", "113737.055000", "113737.064000", "113737.067000", "113737.070000", "113737.073000", "113737.076000", "113737.088000", "113737.091000", "113737.094000", "113737.096000", "113737.099000", "113737.102000", "113737.105000", "113737.108000", "113737.111000", "113737.114000", "113816.990000", "113816.993000", "113816.996000", "113817.000000", "113817.003000", "113817.006000", "113817.009000", "113817.012000", "113817.015000", "113817.018000", "113817.021000", "113817.023000", "113817.026000", "113817.029000", "113817.032000", "113817.043000", "113817.046000", "113817.049000", "113817.052000", "113817.055000", "113817.057000", "113817.060000", "113817.063000", "113817.066000", "113817.069000", "113817.071000", "113817.081000", "113817.084000", "113817.087000", "113817.090000", "113817.093000", "113856.990000", "113856.993000", "113856.996000", "113856.998000", "113857.002000", "113857.005000", "113857.008000", "113857.011000", "113857.014000", "113857.017000", "113857.019000", "113857.022000", "113857.025000", "113857.028000", "113857.031000", "113857.034000", "113857.036000", "113857.039000", "113857.047000", "113857.050000", "113857.053000", "113857.056000", "113857.058000", "113857.061000", "113857.064000", "113857.067000", "113857.070000", "113857.073000", "113857.076000", "113857.079000", "113857.081000", "113936.991000", "113936.994000", "113936.997000", "113937.001000", "113937.003000", "113937.006000", "113937.009000", "113937.020000", "113937.022000", "113937.025000", "113937.028000", "113937.031000", "113937.034000", "113937.037000", "113937.039000", "113937.042000", "113937.045000", "113937.048000", "113937.051000", "113937.054000", "113937.057000", "113937.059000", "113937.062000", "113937.065000", "113937.068000", "113937.071000", "113937.074000", "113937.077000", "113937.079000", "113937.082000", "113937.085000", "113937.088000", "114016.991000", "114016.994000", "114016.997000", "114017.001000", "114017.004000", "114017.007000", "114017.009000", "114017.022000", "114017.025000", "114017.028000", "114017.031000", "114017.034000", "114017.037000", "114017.040000", "114017.042000", "114017.045000", "114017.048000", "114017.051000", "114017.054000", "114017.057000", "114017.059000", "114017.062000", "114017.065000", "114017.068000", "114017.071000", "114017.074000", "114017.077000", "114017.079000", "114017.082000", "114017.085000", "114017.088000", "114056.990000", "114056.993000", "114056.996000", "114057.000000", "114057.003000", "114057.005000", "114057.008000", "114057.011000", "114057.014000", "114057.017000", "114057.020000", "114057.023000", "114057.025000", "114057.028000", "114057.031000", "114057.034000", "114057.037000", "114057.040000", "114057.043000", "114057.046000", "114057.049000", "114057.051000", "114057.054000", "114057.067000", "114057.070000", "114057.072000", "114057.075000", "114057.078000", "114057.081000", "114057.084000", "114057.087000", "114136.990000", "114136.993000", "114136.996000", "114137.000000", "114137.003000", "114137.006000", "114137.008000", "114137.011000", "114137.014000", "114137.017000", "114137.020000", "114137.023000", "114137.026000", "114137.028000", "114137.037000", "114137.040000", "114137.043000", "114137.046000", "114137.048000", "114137.051000", "114137.054000", "114137.057000", "114137.060000", "114137.063000", "114137.065000", "114137.068000", "114137.071000", "114137.074000", "114137.077000", "114137.080000", "114137.083000", "114216.991000", "114216.994000", "114216.997000", "114217.001000", "114217.004000", "114217.007000", "114217.009000", "114217.012000", "114217.015000", "114217.018000", "114217.021000", "114217.024000", "114217.027000", "114217.030000", "114217.032000", "114217.035000", "114217.038000", "114217.041000", "114217.044000", "114217.047000", "114217.049000", "114217.052000", "114217.055000", "114217.058000", "114217.061000", "114217.064000", "114217.067000", "114217.070000", "114217.072000", "114217.075000", "114217.078000", "114217.081000", "114256.990000", "114256.993000", "114256.996000", "114257.000000", "114257.003000", "114257.005000", "114257.008000", "114257.011000", "114257.014000", "114257.017000", "114257.020000", "114257.023000", "114257.025000", "114257.028000", "114257.031000", "114257.034000", "114257.037000", "114257.040000", "114257.043000", "114257.046000", "114257.048000", "114257.051000", "114257.054000", "114257.057000", "114257.060000", "114257.074000", "114257.077000", "114257.080000", "114257.083000", "114257.086000", "114257.089000", "114336.990000", "114336.993000", "114336.996000", "114337.000000", "114337.003000", "114337.006000", "114337.009000", "114337.012000", "114337.015000", "114337.018000", "114337.021000", "114337.034000", "114337.037000", "114337.040000", "114337.043000", "114337.046000", "114337.049000", "114337.051000", "114337.054000", "114337.057000", "114337.060000", "114337.063000", "114337.066000", "114337.069000", "114337.072000", "114337.075000", "114337.078000", "114337.081000", "114337.083000", "114337.086000", "114337.089000", "114356.990000", "114356.993000", "114356.996000", "114357.000000", "114357.002000", "114357.005000", "114357.008000", "114357.011000", "114357.014000", "114357.017000", "114357.020000", "114357.023000", "114357.026000", "114357.028000", "114357.031000", "114357.034000", "114436.991000", "114436.994000", "114436.997000", "114437.001000", "114437.003000", "114437.016000", "114437.019000", "114437.022000", "114437.025000", "114437.028000", "114437.031000", "114437.034000", "114437.037000", "114437.040000", "114437.042000", "114437.046000", "114437.049000", "114437.052000", "114437.055000", "114437.058000", "114437.061000", "114437.064000", "114437.067000", "114437.070000", "114437.073000", "114437.075000", "114437.078000", "114437.081000", "114437.084000", "114437.087000", "114437.090000", "114451.650000", "114451.654000", "114451.657000", "114451.660000", "114451.664000", "114451.668000", "114451.671000", "114451.674000", "114451.677000", "114451.681000", "114451.685000", "114451.689000"],
      "InstanceCreationTime": ["113736.996000", "113737.001000", "113737.010000", "113737.013000", "113737.018000", "113737.021000", "113737.024000", "113737.027000", "113737.030000", "113737.032000", "113737.035000", "113737.038000", "113737.041000", "113737.044000", "113737.047000", "113737.050000", "113737.053000", "113737.055000", "113737.064000", "113737.067000", "113737.070000", "113737.073000", "113737.076000", "113737.088000", "113737.091000", "113737.094000", "113737.096000", "113737.099000", "113737.102000", "113737.105000", "113737.108000", "113737.111000", "113737.114000", "113816.990000", "113816.993000", "113816.996000", "113817.000000", "113817.003000", "113817.006000", "113817.009000", "113817.012000", "113817.015000", "113817.018000", "113817.021000", "113817.023000", "113817.026000", "113817.029000", "113817.032000", "113817.043000", "113817.046000", "113817.049000", "113817.052000", "113817.055000", "113817.057000", "113817.060000", "113817.063000", "113817.066000", "113817.069000", "113817.071000", "113817.081000", "113817.084000", "113817.087000", "113817.090000", "113817.093000", "113856.990000", "113856.993000", "113856.996000", "113856.998000", "113857.002000", "113857.005000", "113857.008000", "113857.011000", "113857.014000", "113857.017000", "113857.019000", "113857.022000", "113857.025000", "113857.028000", "113857.031000", "113857.034000", "113857.036000", "113857.039000", "113857.047000", "113857.050000", "113857.053000", "113857.056000", "113857.058000", "113857.061000", "113857.064000", "113857.067000", "113857.070000", "113857.073000", "113857.076000", "113857.079000", "113857.081000", "113936.991000", "113936.994000", "113936.997000", "113937.001000", "113937.003000", "113937.006000", "113937.009000", "113937.020000", "113937.022000", "113937.025000", "113937.028000", "113937.031000", "113937.034000", "113937.037000", "113937.039000", "113937.042000", "113937.045000", "113937.048000", "113937.051000", "113937.054000", "113937.057000", "113937.059000", "113937.062000", "113937.065000", "113937.068000", "113937.071000", "113937.074000", "113937.077000", "113937.079000", "113937.082000", "113937.085000", "113937.088000", "114016.991000", "114016.994000", "114016.997000", "114017.001000", "114017.004000", "114017.007000", "114017.009000", "114017.022000", "114017.025000", "114017.028000", "114017.031000", "114017.034000", "114017.037000", "114017.040000", "114017.042000", "114017.045000", "114017.048000", "114017.051000", "114017.054000", "114017.057000", "114017.059000", "114017.062000", "114017.065000", "114017.068000", "114017.071000", "114017.074000", "114017.077000", "114017.079000", "114017.082000", "114017.085000", "114017.088000", "114056.990000", "114056.993000", "114056.996000", "114057.000000", "114057.003000", "114057.005000", "114057.008000", "114057.011000", "114057.014000", "114057.017000", "114057.020000", "114057.023000", "114057.025000", "114057.028000", "114057.031000", "114057.034000", "114057.037000", "114057.040000", "114057.043000", "114057.046000", "114057.049000", "114057.051000", "114057.054000", "114057.067000", "114057.070000", "114057.072000", "114057.075000", "114057.078000", "114057.081000", "114057.084000", "114057.087000", "114136.990000", "114136.993000", "114136.996000", "114137.000000", "114137.003000", "114137.006000", "114137.008000", "114137.011000", "114137.014000", "114137.017000", "114137.020000", "114137.023000", "114137.026000", "114137.028000", "114137.037000", "114137.040000", "114137.043000", "114137.046000", "114137.048000", "114137.051000", "114137.054000", "114137.057000", "114137.060000", "114137.063000", "114137.065000", "114137.068000", "114137.071000", "114137.074000", "114137.077000", "114137.080000", "114137.083000", "114216.991000", "114216.994000", "114216.997000", "114217.001000", "114217.004000", "114217.007000", "114217.009000", "114217.012000", "114217.015000", "114217.018000", "114217.021000", "114217.024000", "114217.027000", "114217.030000", "114217.032000", "114217.035000", "114217.038000", "114217.041000", "114217.044000", "114217.047000", "114217.049000", "114217.052000", "114217.055000", "114217.058000", "114217.061000", "114217.064000", "114217.067000", "114217.070000", "114217.072000", "114217.075000", "114217.078000", "114217.081000", "114256.990000", "114256.993000", "114256.996000", "114257.000000", "114257.003000", "114257.005000", "114257.008000", "114257.011000", "114257.014000", "114257.017000", "114257.020000", "114257.023000", "114257.025000", "114257.028000", "114257.031000", "114257.034000", "114257.037000", "114257.040000", "114257.043000", "114257.046000", "114257.048000", "114257.051000", "114257.054000", "114257.057000", "114257.060000", "114257.074000", "114257.077000", "114257.080000", "114257.083000", "114257.086000", "114257.089000", "114336.990000", "114336.993000", "114336.996000", "114337.000000", "114337.003000", "114337.006000", "114337.009000", "114337.012000", "114337.015000", "114337.018000", "114337.021000", "114337.034000", "114337.037000", "114337.040000", "114337.043000", "114337.046000", "114337.049000", "114337.051000", "114337.054000", "114337.057000", "114337.060000", "114337.063000", "114337.066000", "114337.069000", "114337.072000", "114337.075000", "114337.078000", "114337.081000", "114337.083000", "114337.086000", "114337.089000", "114356.990000", "114356.993000", "114356.996000", "114357.000000", "114357.002000", "114357.005000", "114357.008000", "114357.011000", "114357.014000", "114357.017000", "114357.020000", "114357.023000", "114357.026000", "114357.028000", "114357.031000", "114357.034000", "114436.991000", "114436.994000", "114436.997000", "114437.001000", "114437.003000", "114437.016000", "114437.019000", "114437.022000", "114437.025000", "114437.028000", "114437.031000", "114437.034000", "114437.037000", "114437.040000", "114437.042000", "114437.046000", "114437.049000", "114437.052000", "114437.055000", "114437.058000", "114437.061000", "114437.064000", "114437.067000", "114437.070000", "114437.073000", "114437.075000", "114437.078000", "114437.081000", "114437.084000", "114437.087000", "114437.090000", "114451.650000", "114451.654000", "114451.657000", "114451.660000", "114451.664000", "114451.668000", "114451.671000", "114451.674000", "114451.677000", "114451.681000", "114451.685000", "114451.689000"],
      "InstanceNumber": [1, 2, 3, 4, 5, 6, 7, 8, 9, 10, 11, 12, 13, 14, 15, 16, 17, 18, 19, 20, 21, 22, 23, 24, 25, 26, 27, 28, 29, 30, 31, 32, 33, 34, 35, 36, 37, 38, 39, 40, 41, 42, 43, 44, 45, 46, 47, 48, 49, 50, 51, 52, 53, 54, 55, 56, 57, 58, 59, 60, 61, 62, 63, 64, 65, 66, 67, 68, 69, 70, 71, 72, 73, 74, 75, 76, 77, 78, 79, 80, 81, 82, 83, 84, 85, 86, 87, 88, 89, 90, 91, 92, 93, 94, 95, 96, 97, 98, 99, 100, 101, 102, 103, 104, 105, 106, 107, 108, 109, 110, 111, 112, 113, 114, 115, 116, 117, 118, 119, 120, 121, 122, 123, 124, 125, 126, 127, 128, 129, 130, 131, 132, 133, 134, 135, 136, 137, 138, 139, 140, 141, 142, 143, 144, 145, 146, 147, 148, 149, 150, 151, 152, 153, 154, 155, 156, 157, 158, 159, 160, 161, 162, 163, 164, 165, 166, 167, 168, 169, 170, 171, 172, 173, 174, 175, 176, 177, 178, 179, 180, 181, 182, 183, 184, 185, 186, 187, 188, 189, 190, 191, 192, 193, 194, 195, 196, 197, 198, 199, 200, 201, 202, 203, 204, 205, 206, 207, 208, 209, 210, 211, 212, 213, 214, 215, 216, 217, 218, 219, 220, 221, 222, 223, 224, 225, 226, 227, 228, 229, 230, 231, 232, 233, 234, 235, 236, 237, 238, 239, 240, 241, 242, 243, 244, 245, 246, 247, 248, 249, 250, 251, 252, 253, 254, 255, 256, 257, 258, 259, 260, 261, 262, 263, 264, 265, 266, 267, 268, 269, 270, 271, 272, 273, 274, 275, 276, 277, 278, 279, 280, 281, 282, 283, 284, 285, 286, 287, 288, 289, 290, 291, 292, 293, 294, 295, 296, 297, 298, 299, 300, 301, 302, 303, 304, 305, 306, 307, 308, 309, 310, 311, 312, 313, 314, 315, 316, 317, 318, 319, 320, 321, 322, 323, 324, 325, 326, 327, 328, 329, 330, 331, 332, 333, 334, 335, 336, 337, 338, 339, 340, 341, 342, 343, 344, 345, 346, 347, 348, 349, 350, 351, 352, 353, 354, 355, 356, 357, 358, 359, 360, 361, 362, 363, 364, 365, 366, 367, 368, 369, 370, 371, 372, 373],
