{
  "AcquisitionMatrixPE": 108,
  "AcquisitionNumber": 1,
  "AcquisitionTime": "11:52:24.595000",
  "BandwidthPerPixelPhaseEncode": 15.964,
  "BaseResolution": 108,
  "BodyPartExamined": "BRAIN",
  "ConsistencyInfo": "N4_VE11C_LATEST_20160120",
  "ConversionSoftware": "dcm2niix",
  "ConversionSoftwareVersion": "v1.0.20180622 GCC6.3.0",
  "DerivedVendorReportedEchoSpacing": 0.000580009,
  "DeviceSerialNumber": "66054",
  "DwellTime": 2.1e-06,
  "EchoTime": 0.031,
  "EchoTrainLength": 95,
  "EffectiveEchoSpacing": 0.000580009,
  "FlipAngle": 64,
  "ImageOrientationPatientDICOM": [0.999546, 0.0150042, -0.0261205, -0.0279199, 0.786986, -0.616339],
  "ImageType": [
    "ORIGINAL",
    "PRIMARY",
    "M",
    "ND",
    "MOSAIC"
],
  "InPlanePhaseEncodingDirectionDICOM": "COL",
  "InstitutionAddress": "Chemin_des_Mines_9_Geneve_District_CH_1211",
  "InstitutionName": "Fondation_Campus_Biotech_Geneva",
  "InstitutionalDepartmentName": "Department",
  "MRAcquisitionType": "2D",
  "MagneticFieldStrength": 3,
  "Manufacturer": "Siemens",
  "ManufacturersModelName": "Prisma",
  "Modality": "MR",
  "MultibandAccelerationFactor": 4,
  "PartialFourier": 0.875,
  "PatientPosition": "HFS",
  "PercentPhaseFOV": 100,
  "PhaseEncodingDirection": "j-",
  "PhaseEncodingSteps": 95,
  "PhaseResolution": 1,
  "PixelBandwidth": 2205,
  "ProcedureStepDescription": "J.DRM_Michael",
  "ProtocolName": "Run5_bold_s4_TR1.28",
  "PulseSequenceDetails": "%SiemensSeq%_ep2d_bold",
  "ReceiveCoilActiveElements": "HC1-7;NC1,2",
  "ReceiveCoilName": "HeadNeck_64",
  "ReconMatrixPE": 108,
  "RepetitionTime": 1.28,
  "SAR": 0.0717685,
  "ScanOptions": "PFP_FS",
  "ScanningSequence": "EP",
  "SequenceName": "_epfid2d1_108",
  "SequenceVariant": "SK",
  "SeriesDescription": "Run5_bold_s4_TR1.28",
  "SeriesNumber": 11,
  "ShimSetting": [-1253, -11645, 6433, 703, 214, 6, 154, 69],
  "SliceThickness": 2,
  "SliceTiming": [0.945, 0, 0.63, 0.08, 0.71, 0.1575, 0.7875, 0.2375, 0.8675, 0.395, 1.025, 0.4725, 1.1025, 0.5525, 1.1825, 0.315, 0.945, 0, 0.63, 0.08, 0.71, 0.1575, 0.7875, 0.2375, 0.8675, 0.395, 1.025, 0.4725, 1.1025, 0.5525, 1.1825, 0.315, 0.945, 0, 0.63, 0.08, 0.71, 0.1575, 0.7875, 0.2375, 0.8675, 0.395, 1.025, 0.4725, 1.1025, 0.5525, 1.1825, 0.315, 0.945, 0, 0.63, 0.08, 0.71, 0.1575, 0.7875, 0.2375, 0.8675, 0.395, 1.025, 0.4725, 1.1025, 0.5525, 1.1825, 0.315],
  "SoftwareVersions": "syngo_MR_E11",
  "SpacingBetweenSlices": 2,
  "StationName": "AWP66054",
  "TaskName": "main",
  "TotalReadoutTime": 0.0620609,
  "TxRefAmp": 252.019,
  "dcmmeta_affine": [
    [-1.989837408065796, -0.05558120086789131, -0.022617608308792114, 108.08765411376953],
    [-0.029869504272937775, 1.566685438156128, -1.2335762977600098, -52.76380157470703],
    [-0.05199916288256645, 1.2269703149795532, 1.5740959644317627, -97.34101104736328],
    [0.0, 0.0, 0.0, 1.0]
],
  "dcmmeta_reorient_transform": [
    [0.0, -1.0, 0.0, 107.0],
    [1.0, 0.0, 0.0, 0.0],
    [0.0, 0.0, 1.0, 0.0],
    [0.0, 0.0, 0.0, 1.0]
],
  "dcmmeta_shape": [108, 108, 64, 373],
  "dcmmeta_slice_dim": 2,
  "dcmmeta_version": 0.6,
  "global": {
    "const": {
      "AccessionNumber": "",
      "AcquisitionMatrix": [108, 0, 0, 108],
      "AngioFlag": "N",
      "BitsAllocated": 16,
      "BitsStored": 12,
      "BodyPartExamined": "BRAIN",
      "Columns": 864,
      "EchoNumbers": 1,
      "EchoTime": 31.0,
      "EchoTrainLength": 95,
      "FlipAngle": 64.0,
      "HighBit": 11,
      "ImageOrientationPatient": [0.99954619326915, 0.01500421553618, -0.0261205098973, -0.0279198582648, 0.78698617810951, -0.6163385733337],
      "ImagePositionPatient": [-833.28929217343, -718.36932447264, 517.39528402832],
      "ImageType": [
        "ORIGINAL",
        "PRIMARY",
        "M",
        "ND",
        "MOSAIC"
],
      "ImagedNucleus": "1H",
      "ImagingFrequency": 123.257407,
      "InPlanePhaseEncodingDirection": "COL",
      "MRAcquisitionType": "2D",
      "MagneticFieldStrength": 3.0,
      "Manufacturer": "SIEMENS",
      "ManufacturerModelName": "Prisma",
      "Modality": "MR",
      "NumberOfAverages": 1.0,
      "NumberOfPhaseEncodingSteps": 95,
      "PercentPhaseFieldOfView": 100.0,
      "PercentSampling": 100.0,
      "PerformedProcedureStepStartTime": "105513.447000",
      "PhotometricInterpretation": "MONOCHROME2",
      "PixelBandwidth": 2205.0,
      "PixelRepresentation": 0,
      "PixelSpacing": [1.990740776062, 1.990740776062],
      "PositionReferenceIndicator": "",
      "ProtocolName": "Run5_bold_s4_TR1.28",
      "RepetitionTime": 1280.0,
      "Rows": 864,
      "SAR": 0.07176850265843,
      "SamplesPerPixel": 1,
      "ScanOptions": [
        "PFP",
        "FS"
],
      "ScanningSequence": "EP",
      "SequenceName": "*epfid2d1_108",
      "SequenceVariant": "SK",
      "SeriesDescription": "Run5_bold_s4_TR1.28",
      "SeriesNumber": 11,
      "SeriesTime": "115257.135000",
      "SliceLocation": -45.290295829993,
      "SliceThickness": 2.0,
      "SmallestImagePixelValue": 0,
      "SoftwareVersions": "syngo MR E11",
      "SpacingBetweenSlices": 2.0000000504576,
      "SpecificCharacterSet": "ISO_IR 100",
      "StudyID": "1",
      "StudyTime": "105513.295000",
      "TransmitCoilName": "Body",
      "VariableFlipAngleFlag": "N",
      "WindowCenterWidthExplanation": "Algo1",
      "dBdt": 0.0},
    "slices": {}
  },
  "time": {
    "samples": {
      "AcquisitionNumber": [1, 2, 3, 4, 5, 6, 7, 8, 9, 10, 11, 12, 13, 14, 15, 16, 17, 18, 19, 20, 21, 22, 23, 24, 25, 26, 27, 28, 29, 30, 31, 32, 33, 34, 35, 36, 37, 38, 39, 40, 41, 42, 43, 44, 45, 46, 47, 48, 49, 50, 51, 52, 53, 54, 55, 56, 57, 58, 59, 60, 61, 62, 63, 64, 65, 66, 67, 68, 69, 70, 71, 72, 73, 74, 75, 76, 77, 78, 79, 80, 81, 82, 83, 84, 85, 86, 87, 88, 89, 90, 91, 92, 93, 94, 95, 96, 97, 98, 99, 100, 101, 102, 103, 104, 105, 106, 107, 108, 109, 110, 111, 112, 113, 114, 115, 116, 117, 118, 119, 120, 121, 122, 123, 124, 125, 126, 127, 128, 129, 130, 131, 132, 133, 134, 135, 136, 137, 138, 139, 140, 141, 142, 143, 144, 145, 146, 147, 148, 149, 150, 151, 152, 153, 154, 155, 156, 157, 158, 159, 160, 161, 162, 163, 164, 165, 166, 167, 168, 169, 170, 171, 172, 173, 174, 175, 176, 177, 178, 179, 180, 181, 182, 183, 184, 185, 186, 187, 188, 189, 190, 191, 192, 193, 194, 195, 196, 197, 198, 199, 200, 201, 202, 203, 204, 205, 206, 207, 208, 209, 210, 211, 212, 213, 214, 215, 216, 217, 218, 219, 220, 221, 222, 223, 224, 225, 226, 227, 228, 229, 230, 231, 232, 233, 234, 235, 236, 237, 238, 239, 240, 241, 242, 243, 244, 245, 246, 247, 248, 249, 250, 251, 252, 253, 254, 255, 256, 257, 258, 259, 260, 261, 262, 263, 264, 265, 266, 267, 268, 269, 270, 271, 272, 273, 274, 275, 276, 277, 278, 279, 280, 281, 282, 283, 284, 285, 286, 287, 288, 289, 290, 291, 292, 293, 294, 295, 296, 297, 298, 299, 300, 301, 302, 303, 304, 305, 306, 307, 308, 309, 310, 311, 312, 313, 314, 315, 316, 317, 318, 319, 320, 321, 322, 323, 324, 325, 326, 327, 328, 329, 330, 331, 332, 333, 334, 335, 336, 337, 338, 339, 340, 341, 342, 343, 344, 345, 346, 347, 348, 349, 350, 351, 352, 353, 354, 355, 356, 357, 358, 359, 360, 361, 362, 363, 364, 365, 366, 367, 368, 369, 370, 371, 372, 373],
      "AcquisitionTime": ["115224.595000", "115225.875000", "115227.155000", "115228.435000", "115229.715000", "115230.995000", "115232.275000", "115233.555000", "115234.835000", "115236.115000", "115237.395000", "115238.675000", "115239.955000", "115241.235000", "115242.515000", "115243.795000", "115245.075000", "115246.355000", "115247.635000", "115248.915000", "115250.195000", "115251.475000", "115252.755000", "115254.035000", "115255.315000", "115256.595000", "115257.875000", "115259.155000", "115300.435000", "115301.715000", "115302.995000", "115304.275000", "115305.555000", "115306.835000", "115308.115000", "115309.395000", "115310.675000", "115311.955000", "115313.235000", "115314.515000", "115315.795000", "115317.075000", "115318.355000", "115319.635000", "115320.915000", "115322.195000", "115323.475000", "115324.755000", "115326.035000", "115327.315000", "115328.595000", "115329.875000", "115331.155000", "115332.435000", "115333.715000", "115334.995000", "115336.275000", "115337.555000", "115338.835000", "115340.115000", "115341.395000", "115342.675000", "115343.955000", "115345.235000", "115346.515000", "115347.795000", "115349.075000", "115350.355000", "115351.635000", "115352.915000", "115354.195000", "115355.475000", "115356.755000", "115358.035000", "115359.315000", "115400.595000", "115401.875000", "115403.155000", "115404.435000", "115405.715000", "115406.995000", "115408.275000", "115409.555000", "115410.835000", "115412.115000", "115413.395000", "115414.675000", "115415.955000", "115417.235000", "115418.515000", "115419.795000", "115421.075000", "115422.355000", "115423.635000", "115424.915000", "115426.195000", "115427.475000", "115428.755000", "115430.035000", "115431.315000", "115432.595000", "115433.875000", "115435.155000", "115436.435000", "115437.715000", "115438.995000", "115440.275000", "115441.555000", "115442.835000", "115444.115000", "115445.395000", "115446.675000", "115447.955000", "115449.235000", "115450.515000", "115451.795000", "115453.075000", "115454.355000", "115455.635000", "115456.915000", "115458.195000", "115459.475000", "115500.755000", "115502.035000", "115503.315000", "115504.595000", "115505.875000", "115507.155000", "115508.435000", "115509.715000", "115510.995000", "115512.275000", "115513.555000", "115514.835000", "115516.115000", "115517.395000", "115518.675000", "115519.955000", "115521.235000", "115522.515000", "115523.795000", "115525.075000", "115526.355000", "115527.635000", "115528.915000", "115530.195000", "115531.475000", "115532.755000", "115534.035000", "115535.315000", "115536.595000", "115537.875000", "115539.155000", "115540.435000", "115541.715000", "115542.995000", "115544.275000", "115545.555000", "115546.835000", "115548.115000", "115549.395000", "115550.675000", "115551.955000", "115553.235000", "115554.515000", "115555.795000", "115557.075000", "115558.355000", "115559.635000", "115600.915000", "115602.195000", "115603.475000", "115604.755000", "115606.035000", "115607.315000", "115608.595000", "115609.875000", "115611.155000", "115612.435000", "115613.715000", "115614.995000", "115616.275000", "115617.555000", "115618.835000", "115620.115000", "115621.395000", "115622.675000", "115623.955000", "115625.235000", "115626.515000", "115627.795000", "115629.075000", "115630.355000", "115631.635000", "115632.915000", "115634.195000", "115635.475000", "115636.755000", "115638.035000", "115639.315000", "115640.595000", "115641.875000", "115643.155000", "115644.435000", "115645.715000", "115646.995000", "115648.275000", "115649.555000", "115650.835000", "115652.115000", "115653.395000", "115654.675000", "115655.955000", "115657.235000", "115658.515000", "115659.795000", "115701.075000", "115702.355000", "115703.635000", "115704.915000", "115706.195000", "115707.475000", "115708.755000", "115710.035000", "115711.315000", "115712.595000", "115713.875000", "115715.155000", "115716.435000", "115717.715000", "115718.995000", "115720.275000", "115721.555000", "115722.835000", "115724.115000", "115725.395000", "115726.675000", "115727.955000", "115729.235000", "115730.515000", "115731.795000", "115733.075000", "115734.355000", "115735.635000", "115736.915000", "115738.195000", "115739.475000", "115740.755000", "115742.035000", "115743.315000", "115744.595000", "115745.875000", "115747.155000", "115748.435000", "115749.715000", "115750.995000", "115752.275000", "115753.555000", "115754.835000", "115756.115000", "115757.395000", "115758.675000", "115759.955000", "115801.235000", "115802.515000", "115803.795000", "115805.075000", "115806.355000", "115807.635000", "115808.915000", "115810.195000", "115811.475000", "115812.755000", "115814.035000", "115815.315000", "115816.595000", "115817.875000", "115819.155000", "115820.435000", "115821.715000", "115822.995000", "115824.275000", "115825.555000", "115826.835000", "115828.115000", "115829.395000", "115830.675000", "115831.955000", "115833.235000", "115834.515000", "115835.795000", "115837.075000", "115838.355000", "115839.635000", "115840.915000", "115842.195000", "115843.475000", "115844.755000", "115846.035000", "115847.315000", "115848.595000", "115849.875000", "115851.155000", "115852.435000", "115853.715000", "115854.995000", "115856.275000", "115857.555000", "115858.835000", "115900.115000", "115901.395000", "115902.675000", "115903.955000", "115905.235000", "115906.515000", "115907.795000", "115909.075000", "115910.355000", "115911.635000", "115912.915000", "115914.195000", "115915.475000", "115916.755000", "115918.035000", "115919.315000", "115920.595000", "115921.875000", "115923.155000", "115924.435000", "115925.715000", "115926.995000", "115928.275000", "115929.555000", "115930.835000", "115932.115000", "115933.395000", "115934.675000", "115935.955000", "115937.235000", "115938.515000", "115939.795000", "115941.075000", "115942.355000", "115943.635000", "115944.915000", "115946.195000", "115947.475000", "115948.755000", "115950.035000", "115951.315000", "115952.595000", "115953.875000", "115955.155000", "115956.435000", "115957.715000", "115958.995000", "120000.275000", "120001.555000", "120002.835000", "120004.115000", "120005.395000", "120006.675000", "120007.955000", "120009.235000", "120010.515000", "120011.795000", "120013.075000", "120014.355000", "120015.635000", "120016.915000", "120018.195000", "120019.475000", "120020.755000"],
      "ContentTime": ["115257.139000", "115257.142000", "115257.145000", "115257.148000", "115257.151000", "115257.154000", "115257.157000", "115257.160000", "115257.163000", "115257.166000", "115257.168000", "115257.171000", "115257.174000", "115257.183000", "115257.186000", "115257.189000", "115257.191000", "115257.194000", "115257.197000", "115257.200000", "115257.203000", "115257.206000", "115257.208000", "115257.211000", "115257.214000", "115337.135000", "115337.146000", "115337.148000", "115337.151000", "115337.154000", "115337.157000", "115337.160000", "115337.163000", "115337.165000", "115337.168000", "115337.171000", "115337.174000", "115337.177000", "115337.179000", "115337.182000", "115337.185000", "115337.188000", "115337.191000", "115337.194000", "115337.197000", "115337.200000", "115337.203000", "115337.206000", "115337.209000", "115337.212000", "115337.215000", "115337.247000", "115337.250000", "115337.253000", "115337.256000", "115337.258000", "115417.134000", "115417.137000", "115417.140000", "115417.143000", "115417.146000", "115417.149000", "115417.151000", "115417.154000", "115417.157000", "115417.160000", "115417.163000", "115417.166000", "115417.169000", "115417.171000", "115417.174000", "115417.177000", "115417.180000", "115417.183000", "115417.186000", "115417.192000", "115417.195000", "115417.198000", "115417.201000", "115417.204000", "115417.207000", "115417.210000", "115417.213000", "115417.216000", "115417.226000", "115417.229000", "115417.231000", "115417.234000", "115457.134000", "115457.137000", "115457.140000", "115457.143000", "115457.146000", "115457.149000", "115457.151000", "115457.154000", "115457.157000", "115457.160000", "115457.163000", "115457.166000", "115457.168000", "115457.171000", "115457.200000", "115457.203000", "115457.206000", "115457.209000", "115457.212000", "115457.215000", "115457.217000", "115457.220000", "115457.223000", "115457.226000", "115457.229000", "115457.232000", "115457.234000", "115457.237000", "115457.240000", "115457.243000", "115457.246000", "115537.135000", "115537.138000", "115537.141000", "115537.144000", "115537.147000", "115537.149000", "115537.152000", "115537.155000", "115537.158000", "115537.161000", "115537.164000", "115537.167000", "115537.169000", "115537.172000", "115537.175000", "115537.178000", "115537.181000", "115537.184000", "115537.187000", "115537.190000", "115537.193000", "115537.196000", "115537.198000", "115537.201000", "115537.204000", "115537.207000", "115537.210000", "115537.213000", "115537.216000", "115537.219000", "115537.221000", "115617.135000", "115617.138000", "115617.141000", "115617.144000", "115617.147000", "115617.150000", "115617.152000", "115617.155000", "115617.158000", "115617.161000", "115617.164000", "115617.167000", "115617.170000", "115617.172000", "115617.175000", "115617.178000", "115617.181000", "115617.184000", "115617.187000", "115617.190000", "115617.193000", "115617.195000", "115617.198000", "115617.201000", "115617.204000", "115617.207000", "115617.210000", "115617.213000", "115617.215000", "115617.218000", "115617.221000", "115657.134000", "115657.137000", "115657.140000", "115657.143000", "115657.146000", "115657.149000", "115657.151000", "115657.154000", "115657.157000", "115657.160000", "115657.163000", "115657.166000", "115657.169000", "115657.172000", "115657.174000", "115657.177000", "115657.180000", "115657.183000", "115657.186000", "115657.188000", "115657.191000", "115657.194000", "115657.197000", "115657.200000", "115657.203000", "115657.206000", "115657.208000", "115657.211000", "115657.214000", "115657.217000", "115657.220000", "115657.223000", "115737.134000", "115737.137000", "115737.140000", "115737.143000", "115737.146000", "115737.149000", "115737.151000", "115737.154000", "115737.157000", "115737.160000", "115737.163000", "115737.166000", "115737.169000", "115737.172000", "115737.174000", "115737.177000", "115737.180000", "115737.183000", "115737.186000", "115737.189000", "115737.192000", "115737.194000", "115737.197000", "115737.200000", "115737.203000", "115737.206000", "115737.209000", "115737.212000", "115737.215000", "115737.217000", "115737.220000", "115817.135000", "115817.138000", "115817.141000", "115817.144000", "115817.147000", "115817.149000", "115817.152000", "115817.155000", "115817.158000", "115817.161000", "115817.164000", "115817.167000", "115817.169000", "115817.172000", "115817.175000", "115817.178000", "115817.191000", "115817.194000", "115817.197000", "115817.200000", "115817.202000", "115817.205000", "115817.208000", "115817.211000", "115817.214000", "115817.217000", "115817.220000", "115817.223000", "115817.225000", "115817.228000", "115817.231000", "115857.134000", "115857.137000", "115857.140000", "115857.143000", "115857.146000", "115857.149000", "115857.152000", "115857.155000", "115857.157000", "115857.160000", "115857.163000", "115857.166000", "115857.169000", "115857.172000", "115857.175000", "115857.177000", "115857.180000", "115857.183000", "115857.186000", "115857.204000", "115857.207000", "115857.209000", "115857.212000", "115857.215000", "115857.218000", "115857.221000", "115857.224000", "115857.227000", "115857.229000", "115857.232000", "115857.235000", "115937.134000", "115937.137000", "115937.140000", "115937.143000", "115937.146000", "115937.149000", "115937.152000", "115937.154000", "115937.157000", "115937.160000", "115937.163000", "115937.166000", "115937.169000", "115937.172000", "115937.175000", "115937.177000", "115937.180000", "115937.183000", "115937.186000", "115937.189000", "115937.192000", "115937.195000", "115937.197000", "115937.200000", "115937.203000", "115937.206000", "115937.209000", "115937.212000", "115937.215000", "115937.218000", "115937.221000", "115937.223000", "120017.135000", "120017.138000", "120017.141000", "120017.144000", "120017.147000", "120017.150000", "120017.152000", "120017.155000", "120017.158000", "120017.161000", "120017.164000", "120017.179000", "120017.182000", "120017.185000", "120017.188000", "120017.191000", "120017.193000", "120017.196000", "120017.199000", "120017.202000", "120017.205000", "120017.208000", "120017.211000", "120017.214000", "120017.216000", "120017.219000", "120017.222000", "120017.225000", "120017.228000", "120017.231000", "120017.234000", "120021.693000", "120021.696000", "120021.699000", "120021.702000"],
      "InstanceCreationTime": ["115257.139000", "115257.142000", "115257.145000", "115257.148000", "115257.151000", "115257.154000", "115257.157000", "115257.160000", "115257.163000", "115257.166000", "115257.168000", "115257.171000", "115257.174000", "115257.183000", "115257.186000", "115257.189000", "115257.191000", "115257.194000", "115257.197000", "115257.200000", "115257.203000", "115257.206000", "115257.208000", "115257.211000", "115257.214000", "115337.135000", "115337.146000", "115337.148000", "115337.151000", "115337.154000", "115337.157000", "115337.160000", "115337.163000", "115337.165000", "115337.168000", "115337.171000", "115337.174000", "115337.177000", "115337.179000", "115337.182000", "115337.185000", "115337.188000", "115337.191000", "115337.194000", "115337.197000", "115337.200000", "115337.203000", "115337.206000", "115337.209000", "115337.212000", "115337.215000", "115337.247000", "115337.250000", "115337.253000", "115337.256000", "115337.258000", "115417.134000", "115417.137000", "115417.140000", "115417.143000", "115417.146000", "115417.149000", "115417.151000", "115417.154000", "115417.157000", "115417.160000", "115417.163000", "115417.166000", "115417.169000", "115417.171000", "115417.174000", "115417.177000", "115417.180000", "115417.183000", "115417.186000", "115417.192000", "115417.195000", "115417.198000", "115417.201000", "115417.204000", "115417.207000", "115417.210000", "115417.213000", "115417.216000", "115417.226000", "115417.229000", "115417.231000", "115417.234000", "115457.134000", "115457.137000", "115457.140000", "115457.143000", "115457.146000", "115457.149000", "115457.151000", "115457.154000", "115457.157000", "115457.160000", "115457.163000", "115457.166000", "115457.168000", "115457.171000", "115457.200000", "115457.203000", "115457.206000", "115457.209000", "115457.212000", "115457.215000", "115457.217000", "115457.220000", "115457.223000", "115457.226000", "115457.229000", "115457.232000", "115457.234000", "115457.237000", "115457.240000", "115457.243000", "115457.246000", "115537.135000", "115537.138000", "115537.141000", "115537.144000", "115537.147000", "115537.149000", "115537.152000", "115537.155000", "115537.158000", "115537.161000", "115537.164000", "115537.167000", "115537.169000", "115537.172000", "115537.175000", "115537.178000", "115537.181000", "115537.184000", "115537.187000", "115537.190000", "115537.193000", "115537.196000", "115537.198000", "115537.201000", "115537.204000", "115537.207000", "115537.210000", "115537.213000", "115537.216000", "115537.219000", "115537.221000", "115617.135000", "115617.138000", "115617.141000", "115617.144000", "115617.147000", "115617.150000", "115617.152000", "115617.155000", "115617.158000", "115617.161000", "115617.164000", "115617.167000", "115617.170000", "115617.172000", "115617.175000", "115617.178000", "115617.181000", "115617.184000", "115617.187000", "115617.190000", "115617.193000", "115617.195000", "115617.198000", "115617.201000", "115617.204000", "115617.207000", "115617.210000", "115617.213000", "115617.215000", "115617.218000", "115617.221000", "115657.134000", "115657.137000", "115657.140000", "115657.143000", "115657.146000", "115657.149000", "115657.151000", "115657.154000", "115657.157000", "115657.160000", "115657.163000", "115657.166000", "115657.169000", "115657.172000", "115657.174000", "115657.177000", "115657.180000", "115657.183000", "115657.186000", "115657.188000", "115657.191000", "115657.194000", "115657.197000", "115657.200000", "115657.203000", "115657.206000", "115657.208000", "115657.211000", "115657.214000", "115657.217000", "115657.220000", "115657.223000", "115737.134000", "115737.137000", "115737.140000", "115737.143000", "115737.146000", "115737.149000", "115737.151000", "115737.154000", "115737.157000", "115737.160000", "115737.163000", "115737.166000", "115737.169000", "115737.172000", "115737.174000", "115737.177000", "115737.180000", "115737.183000", "115737.186000", "115737.189000", "115737.192000", "115737.194000", "115737.197000", "115737.200000", "115737.203000", "115737.206000", "115737.209000", "115737.212000", "115737.215000", "115737.217000", "115737.220000", "115817.135000", "115817.138000", "115817.141000", "115817.144000", "115817.147000", "115817.149000", "115817.152000", "115817.155000", "115817.158000", "115817.161000", "115817.164000", "115817.167000", "115817.169000", "115817.172000", "115817.175000", "115817.178000", "115817.191000", "115817.194000", "115817.197000", "115817.200000", "115817.202000", "115817.205000", "115817.208000", "115817.211000", "115817.214000", "115817.217000", "115817.220000", "115817.223000", "115817.225000", "115817.228000", "115817.231000", "115857.134000", "115857.137000", "115857.140000", "115857.143000", "115857.146000", "115857.149000", "115857.152000", "115857.155000", "115857.157000", "115857.160000", "115857.163000", "115857.166000", "115857.169000", "115857.172000", "115857.175000", "115857.177000", "115857.180000", "115857.183000", "115857.186000", "115857.204000", "115857.207000", "115857.209000", "115857.212000", "115857.215000", "115857.218000", "115857.221000", "115857.224000", "115857.227000", "115857.229000", "115857.232000", "115857.235000", "115937.134000", "115937.137000", "115937.140000", "115937.143000", "115937.146000", "115937.149000", "115937.152000", "115937.154000", "115937.157000", "115937.160000", "115937.163000", "115937.166000", "115937.169000", "115937.172000", "115937.175000", "115937.177000", "115937.180000", "115937.183000", "115937.186000", "115937.189000", "115937.192000", "115937.195000", "115937.197000", "115937.200000", "115937.203000", "115937.206000", "115937.209000", "115937.212000", "115937.215000", "115937.218000", "115937.221000", "115937.223000", "120017.135000", "120017.138000", "120017.141000", "120017.144000", "120017.147000", "120017.150000", "120017.152000", "120017.155000", "120017.158000", "120017.161000", "120017.164000", "120017.179000", "120017.182000", "120017.185000", "120017.188000", "120017.191000", "120017.193000", "120017.196000", "120017.199000", "120017.202000", "120017.205000", "120017.208000", "120017.211000", "120017.214000", "120017.216000", "120017.219000", "120017.222000", "120017.225000", "120017.228000", "120017.231000", "120017.234000", "120021.693000", "120021.696000", "120021.699000", "120021.702000"],
      "InstanceNumber": [1, 2, 3, 4, 5, 6, 7, 8, 9, 10, 11, 12, 13, 14, 15, 16, 17, 18, 19, 20, 21, 22, 23, 24, 25, 26, 27, 28, 29, 30, 31, 32, 33, 34, 35, 36, 37, 38, 39, 40, 41, 42, 43, 44, 45, 46, 47, 48, 49, 50, 51, 52, 53, 54, 55, 56, 57, 58, 59, 60, 61, 62, 63, 64, 65, 66, 67, 68, 69, 70, 71, 72, 73, 74, 75, 76, 77, 78, 79, 80, 81, 82, 83, 84, 85, 86, 87, 88, 89, 90, 91, 92, 93, 94, 95, 96, 97, 98, 99, 100, 101, 102, 103, 104, 105, 106, 107, 108, 109, 110, 111, 112, 113, 114, 115, 116, 117, 118, 119, 120, 121, 122, 123, 124, 125, 126, 127, 128, 129, 130, 131, 132, 133, 134, 135, 136, 137, 138, 139, 140, 141, 142, 143, 144, 145, 146, 147, 148, 149, 150, 151, 152, 153, 154, 155, 156, 157, 158, 159, 160, 161, 162, 163, 164, 165, 166, 167, 168, 169, 170, 171, 172, 173, 174, 175, 176, 177, 178, 179, 180, 181, 182, 183, 184, 185, 186, 187, 188, 189, 190, 191, 192, 193, 194, 195, 196, 197, 198, 199, 200, 201, 202, 203, 204, 205, 206, 207, 208, 209, 210, 211, 212, 213, 214, 215, 216, 217, 218, 219, 220, 221, 222, 223, 224, 225, 226, 227, 228, 229, 230, 231, 232, 233, 234, 235, 236, 237, 238, 239, 240, 241, 242, 243, 244, 245, 246, 247, 248, 249, 250, 251, 252, 253, 254, 255, 256, 257, 258, 259, 260, 261, 262, 263, 264, 265, 266, 267, 268, 269, 270, 271, 272, 273, 274, 275, 276, 277, 278, 279, 280, 281, 282, 283, 284, 285, 286, 287, 288, 289, 290, 291, 292, 293, 294, 295, 296, 297, 298, 299, 300, 301, 302, 303, 304, 305, 306, 307, 308, 309, 310, 311, 312, 313, 314, 315, 316, 317, 318, 319, 320, 321, 322, 323, 324, 325, 326, 327, 328, 329, 330, 331, 332, 333, 334, 335, 336, 337, 338, 339, 340, 341, 342, 343, 344, 345, 346, 347, 348, 349, 350, 351, 352, 353, 354, 355, 356, 357, 358, 359, 360, 361, 362, 363, 364, 365, 366, 367, 368, 369, 370, 371, 372, 373],
