{
  "AcquisitionMatrixPE": 108,
  "AcquisitionNumber": 1,
  "AcquisitionTime": "11:27:5.010000",
  "BandwidthPerPixelPhaseEncode": 15.964,
  "BaseResolution": 108,
  "BodyPartExamined": "BRAIN",
  "ConsistencyInfo": "N4_VE11C_LATEST_20160120",
  "ConversionSoftware": "dcm2niix",
  "ConversionSoftwareVersion": "v1.0.20180622 GCC6.3.0",
  "DerivedVendorReportedEchoSpacing": 0.000580009,
  "DeviceSerialNumber": "66054",
  "DwellTime": 2.1e-06,
  "EchoTime": 0.031,
  "EchoTrainLength": 95,
  "EffectiveEchoSpacing": 0.000580009,
  "FlipAngle": 64,
  "ImageOrientationPatientDICOM": [0.999546, 0.0150042, -0.0261205, -0.0279199, 0.786986, -0.616339],
  "ImageType": [
    "ORIGINAL",
    "PRIMARY",
    "M",
    "ND",
    "MOSAIC"
],
  "InPlanePhaseEncodingDirectionDICOM": "COL",
  "InstitutionAddress": "Chemin_des_Mines_9_Geneve_District_CH_1211",
  "InstitutionName": "Fondation_Campus_Biotech_Geneva",
  "InstitutionalDepartmentName": "Department",
  "MRAcquisitionType": "2D",
  "MagneticFieldStrength": 3,
  "Manufacturer": "Siemens",
  "ManufacturersModelName": "Prisma",
  "Modality": "MR",
  "MultibandAccelerationFactor": 4,
  "PartialFourier": 0.875,
  "PatientPosition": "HFS",
  "PercentPhaseFOV": 100,
  "PhaseEncodingDirection": "j-",
  "PhaseEncodingSteps": 95,
  "PhaseResolution": 1,
  "PixelBandwidth": 2205,
  "ProcedureStepDescription": "J.DRM_Michael",
  "ProtocolName": "Run3_bold_s4_TR1.28",
  "PulseSequenceDetails": "%SiemensSeq%_ep2d_bold",
  "ReceiveCoilActiveElements": "HC1-7;NC1,2",
  "ReceiveCoilName": "HeadNeck_64",
  "ReconMatrixPE": 108,
  "RepetitionTime": 1.28,
  "SAR": 0.0717685,
  "ScanOptions": "PFP_FS",
  "ScanningSequence": "EP",
  "SequenceName": "_epfid2d1_108",
  "SequenceVariant": "SK",
  "SeriesDescription": "Run3_bold_s4_TR1.28",
  "SeriesNumber": 8,
  "ShimSetting": [-1253, -11645, 6433, 703, 214, 6, 154, 69],
  "SliceThickness": 2,
  "SliceTiming": [0.945, 0, 0.63, 0.0775, 0.7075, 0.1575, 0.7875, 0.235, 0.865, 0.3925, 1.0225, 0.4725, 1.1025, 0.55, 1.18, 0.315, 0.945, 0, 0.63, 0.0775, 0.7075, 0.1575, 0.7875, 0.235, 0.865, 0.3925, 1.0225, 0.4725, 1.1025, 0.55, 1.18, 0.315, 0.945, 0, 0.63, 0.0775, 0.7075, 0.1575, 0.7875, 0.235, 0.865, 0.3925, 1.0225, 0.4725, 1.1025, 0.55, 1.18, 0.315, 0.945, 0, 0.63, 0.0775, 0.7075, 0.1575, 0.7875, 0.235, 0.865, 0.3925, 1.0225, 0.4725, 1.1025, 0.55, 1.18, 0.315],
  "SoftwareVersions": "syngo_MR_E11",
  "SpacingBetweenSlices": 2,
  "StationName": "AWP66054",
  "TaskName": "main",
  "TotalReadoutTime": 0.0620609,
  "TxRefAmp": 252.019,
  "dcmmeta_affine": [
    [-1.989837408065796, -0.05558120086789131, -0.022617608308792114, 108.08765411376953],
    [-0.029869504272937775, 1.566685438156128, -1.2335762977600098, -52.76380157470703],
    [-0.05199916288256645, 1.2269703149795532, 1.5740959644317627, -97.34101104736328],
    [0.0, 0.0, 0.0, 1.0]
],
  "dcmmeta_reorient_transform": [
    [0.0, -1.0, 0.0, 107.0],
    [1.0, 0.0, 0.0, 0.0],
    [0.0, 0.0, 1.0, 0.0],
    [0.0, 0.0, 0.0, 1.0]
],
  "dcmmeta_shape": [108, 108, 64, 373],
  "dcmmeta_slice_dim": 2,
  "dcmmeta_version": 0.6,
  "global": {
    "const": {
      "AccessionNumber": "",
      "AcquisitionMatrix": [108, 0, 0, 108],
      "AngioFlag": "N",
      "BitsAllocated": 16,
      "BitsStored": 12,
      "BodyPartExamined": "BRAIN",
      "Columns": 864,
      "EchoNumbers": 1,
      "EchoTime": 31.0,
      "EchoTrainLength": 95,
      "FlipAngle": 64.0,
      "HighBit": 11,
      "ImageOrientationPatient": [0.99954619326915, 0.01500421553618, -0.0261205098973, -0.0279198582648, 0.78698617810951, -0.6163385733337],
      "ImagePositionPatient": [-833.28929217343, -718.36932447264, 517.39528402832],
      "ImageType": [
        "ORIGINAL",
        "PRIMARY",
        "M",
        "ND",
        "MOSAIC"
],
      "ImagedNucleus": "1H",
      "ImagingFrequency": 123.257397,
      "InPlanePhaseEncodingDirection": "COL",
      "MRAcquisitionType": "2D",
      "MagneticFieldStrength": 3.0,
      "Manufacturer": "SIEMENS",
      "ManufacturerModelName": "Prisma",
      "Modality": "MR",
      "NumberOfAverages": 1.0,
      "NumberOfPhaseEncodingSteps": 95,
      "PercentPhaseFieldOfView": 100.0,
      "PercentSampling": 100.0,
      "PerformedProcedureStepStartTime": "105513.447000",
      "PhotometricInterpretation": "MONOCHROME2",
      "PixelBandwidth": 2205.0,
      "PixelRepresentation": 0,
      "PixelSpacing": [1.990740776062, 1.990740776062],
      "PositionReferenceIndicator": "",
      "ProtocolName": "Run3_bold_s4_TR1.28",
      "RepetitionTime": 1280.0,
      "Rows": 864,
      "SAR": 0.07176850265843,
      "SamplesPerPixel": 1,
      "ScanOptions": [
        "PFP",
        "FS"
],
      "ScanningSequence": "EP",
      "SequenceName": "*epfid2d1_108",
      "SequenceVariant": "SK",
      "SeriesDescription": "Run3_bold_s4_TR1.28",
      "SeriesNumber": 8,
      "SeriesTime": "112737.135000",
      "SliceLocation": -45.290295829993,
      "SliceThickness": 2.0,
      "SmallestImagePixelValue": 0,
      "SoftwareVersions": "syngo MR E11",
      "SpacingBetweenSlices": 2.0000000504576,
      "SpecificCharacterSet": "ISO_IR 100",
      "StudyID": "1",
      "StudyTime": "105513.295000",
      "TransmitCoilName": "Body",
      "VariableFlipAngleFlag": "N",
      "WindowCenterWidthExplanation": "Algo1",
      "dBdt": 0.0},
    "slices": {}
  },
  "time": {
    "samples": {
      "AcquisitionNumber": [1, 2, 3, 4, 5, 6, 7, 8, 9, 10, 11, 12, 13, 14, 15, 16, 17, 18, 19, 20, 21, 22, 23, 24, 25, 26, 27, 28, 29, 30, 31, 32, 33, 34, 35, 36, 37, 38, 39, 40, 41, 42, 43, 44, 45, 46, 47, 48, 49, 50, 51, 52, 53, 54, 55, 56, 57, 58, 59, 60, 61, 62, 63, 64, 65, 66, 67, 68, 69, 70, 71, 72, 73, 74, 75, 76, 77, 78, 79, 80, 81, 82, 83, 84, 85, 86, 87, 88, 89, 90, 91, 92, 93, 94, 95, 96, 97, 98, 99, 100, 101, 102, 103, 104, 105, 106, 107, 108, 109, 110, 111, 112, 113, 114, 115, 116, 117, 118, 119, 120, 121, 122, 123, 124, 125, 126, 127, 128, 129, 130, 131, 132, 133, 134, 135, 136, 137, 138, 139, 140, 141, 142, 143, 144, 145, 146, 147, 148, 149, 150, 151, 152, 153, 154, 155, 156, 157, 158, 159, 160, 161, 162, 163, 164, 165, 166, 167, 168, 169, 170, 171, 172, 173, 174, 175, 176, 177, 178, 179, 180, 181, 182, 183, 184, 185, 186, 187, 188, 189, 190, 191, 192, 193, 194, 195, 196, 197, 198, 199, 200, 201, 202, 203, 204, 205, 206, 207, 208, 209, 210, 211, 212, 213, 214, 215, 216, 217, 218, 219, 220, 221, 222, 223, 224, 225, 226, 227, 228, 229, 230, 231, 232, 233, 234, 235, 236, 237, 238, 239, 240, 241, 242, 243, 244, 245, 246, 247, 248, 249, 250, 251, 252, 253, 254, 255, 256, 257, 258, 259, 260, 261, 262, 263, 264, 265, 266, 267, 268, 269, 270, 271, 272, 273, 274, 275, 276, 277, 278, 279, 280, 281, 282, 283, 284, 285, 286, 287, 288, 289, 290, 291, 292, 293, 294, 295, 296, 297, 298, 299, 300, 301, 302, 303, 304, 305, 306, 307, 308, 309, 310, 311, 312, 313, 314, 315, 316, 317, 318, 319, 320, 321, 322, 323, 324, 325, 326, 327, 328, 329, 330, 331, 332, 333, 334, 335, 336, 337, 338, 339, 340, 341, 342, 343, 344, 345, 346, 347, 348, 349, 350, 351, 352, 353, 354, 355, 356, 357, 358, 359, 360, 361, 362, 363, 364, 365, 366, 367, 368, 369, 370, 371, 372, 373],
      "AcquisitionTime": ["112705.010000", "112706.290000", "112707.570000", "112708.850000", "112710.130000", "112711.410000", "112712.690000", "112713.970000", "112715.250000", "112716.530000", "112717.810000", "112719.090000", "112720.370000", "112721.650000", "112722.930000", "112724.210000", "112725.490000", "112726.770000", "112728.050000", "112729.330000", "112730.610000", "112731.890000", "112733.170000", "112734.450000", "112735.730000", "112737.010000", "112738.290000", "112739.570000", "112740.850000", "112742.130000", "112743.410000", "112744.690000", "112745.970000", "112747.250000", "112748.530000", "112749.810000", "112751.090000", "112752.370000", "112753.650000", "112754.930000", "112756.210000", "112757.490000", "112758.770000", "112800.050000", "112801.330000", "112802.610000", "112803.890000", "112805.170000", "112806.450000", "112807.730000", "112809.010000", "112810.290000", "112811.570000", "112812.850000", "112814.130000", "112815.410000", "112816.690000", "112817.970000", "112819.250000", "112820.530000", "112821.810000", "112823.090000", "112824.370000", "112825.650000", "112826.930000", "112828.210000", "112829.490000", "112830.770000", "112832.050000", "112833.330000", "112834.610000", "112835.890000", "112837.170000", "112838.450000", "112839.730000", "112841.010000", "112842.290000", "112843.570000", "112844.850000", "112846.130000", "112847.410000", "112848.690000", "112849.970000", "112851.250000", "112852.530000", "112853.810000", "112855.090000", "112856.370000", "112857.650000", "112858.930000", "112900.210000", "112901.490000", "112902.770000", "112904.050000", "112905.330000", "112906.610000", "112907.890000", "112909.170000", "112910.450000", "112911.730000", "112913.010000", "112914.290000", "112915.570000", "112916.850000", "112918.130000", "112919.410000", "112920.690000", "112921.970000", "112923.250000", "112924.530000", "112925.810000", "112927.090000", "112928.370000", "112929.650000", "112930.930000", "112932.210000", "112933.490000", "112934.770000", "112936.050000", "112937.330000", "112938.610000", "112939.890000", "112941.170000", "112942.450000", "112943.730000", "112945.010000", "112946.290000", "112947.570000", "112948.850000", "112950.130000", "112951.410000", "112952.690000", "112953.970000", "112955.250000", "112956.530000", "112957.810000", "112959.090000", "113000.370000", "113001.650000", "113002.930000", "113004.210000", "113005.490000", "113006.770000", "113008.050000", "113009.330000", "113010.610000", "113011.890000", "113013.170000", "113014.450000", "113015.730000", "113017.010000", "113018.290000", "113019.570000", "113020.850000", "113022.130000", "113023.410000", "113024.690000", "113025.970000", "113027.250000", "113028.530000", "113029.810000", "113031.090000", "113032.370000", "113033.650000", "113034.930000", "113036.210000", "113037.490000", "113038.770000", "113040.050000", "113041.330000", "113042.610000", "113043.890000", "113045.170000", "113046.450000", "113047.730000", "113049.010000", "113050.290000", "113051.570000", "113052.850000", "113054.130000", "113055.410000", "113056.690000", "113057.970000", "113059.250000", "113100.530000", "113101.810000", "113103.090000", "113104.370000", "113105.650000", "113106.930000", "113108.210000", "113109.490000", "113110.770000", "113112.050000", "113113.330000", "113114.610000", "113115.890000", "113117.170000", "113118.450000", "113119.730000", "113121.010000", "113122.290000", "113123.570000", "113124.850000", "113126.130000", "113127.410000", "113128.690000", "113129.970000", "113131.250000", "113132.530000", "113133.810000", "113135.090000", "113136.370000", "113137.650000", "113138.930000", "113140.210000", "113141.490000", "113142.770000", "113144.050000", "113145.330000", "113146.610000", "113147.890000", "113149.170000", "113150.450000", "113151.730000", "113153.010000", "113154.290000", "113155.570000", "113156.850000", "113158.130000", "113159.410000", "113200.690000", "113201.970000", "113203.250000", "113204.530000", "113205.810000", "113207.090000", "113208.370000", "113209.650000", "113210.930000", "113212.210000", "113213.490000", "113214.770000", "113216.050000", "113217.330000", "113218.610000", "113219.890000", "113221.170000", "113222.450000", "113223.730000", "113225.010000", "113226.290000", "113227.570000", "113228.850000", "113230.130000", "113231.410000", "113232.690000", "113233.970000", "113235.250000", "113236.530000", "113237.810000", "113239.090000", "113240.370000", "113241.650000", "113242.930000", "113244.210000", "113245.490000", "113246.770000", "113248.050000", "113249.330000", "113250.610000", "113251.890000", "113253.170000", "113254.450000", "113255.730000", "113257.010000", "113258.290000", "113259.570000", "113300.850000", "113302.130000", "113303.410000", "113304.690000", "113305.970000", "113307.250000", "113308.530000", "113309.810000", "113311.090000", "113312.370000", "113313.650000", "113314.930000", "113316.210000", "113317.490000", "113318.770000", "113320.050000", "113321.330000", "113322.610000", "113323.890000", "113325.170000", "113326.450000", "113327.730000", "113329.010000", "113330.290000", "113331.570000", "113332.850000", "113334.130000", "113335.410000", "113336.690000", "113337.970000", "113339.250000", "113340.530000", "113341.810000", "113343.090000", "113344.370000", "113345.650000", "113346.930000", "113348.210000", "113349.490000", "113350.770000", "113352.050000", "113353.330000", "113354.610000", "113355.890000", "113357.170000", "113358.450000", "113359.730000", "113401.010000", "113402.290000", "113403.570000", "113404.850000", "113406.130000", "113407.410000", "113408.690000", "113409.970000", "113411.250000", "113412.530000", "113413.810000", "113415.090000", "113416.370000", "113417.650000", "113418.930000", "113420.210000", "113421.490000", "113422.770000", "113424.050000", "113425.330000", "113426.610000", "113427.890000", "113429.170000", "113430.450000", "113431.730000", "113433.010000", "113434.290000", "113435.570000", "113436.850000", "113438.130000", "113439.410000", "113440.690000", "113441.970000", "113443.250000", "113444.530000", "113445.810000", "113447.090000", "113448.370000", "113449.650000", "113450.930000", "113452.210000", "113453.490000", "113454.770000", "113456.050000", "113457.330000", "113458.610000", "113459.890000", "113501.170000"],
      "ContentTime": ["112737.139000", "112737.142000", "112737.145000", "112737.148000", "112737.151000", "112737.154000", "112737.157000", "112737.159000", "112737.162000", "112737.165000", "112737.168000", "112737.174000", "112737.183000", "112737.186000", "112737.189000", "112737.192000", "112737.194000", "112737.197000", "112737.200000", "112737.203000", "112737.206000", "112737.209000", "112737.212000", "112737.214000", "112737.217000", "112817.135000", "112817.138000", "112817.141000", "112817.144000", "112817.147000", "112817.149000", "112817.152000", "112817.155000", "112817.158000", "112817.161000", "112817.164000", "112817.166000", "112817.169000", "112817.172000", "112817.175000", "112817.178000", "112817.181000", "112817.184000", "112817.186000", "112817.189000", "112817.192000", "112817.195000", "112817.198000", "112817.200000", "112817.203000", "112817.206000", "112817.209000", "112817.212000", "112817.215000", "112817.218000", "112817.221000", "112857.134000", "112857.137000", "112857.140000", "112857.143000", "112857.146000", "112857.149000", "112857.151000", "112857.154000", "112857.157000", "112857.160000", "112857.163000", "112857.166000", "112857.169000", "112857.172000", "112857.174000", "112857.177000", "112857.180000", "112857.183000", "112857.186000", "112857.188000", "112857.191000", "112857.194000", "112857.197000", "112857.200000", "112857.203000", "112857.206000", "112857.209000", "112857.211000", "112857.214000", "112857.217000", "112857.229000", "112937.134000", "112937.137000", "112937.140000", "112937.143000", "112937.146000", "112937.148000", "112937.151000", "112937.154000", "112937.157000", "112937.160000", "112937.163000", "112937.166000", "112937.168000", "112937.171000", "112937.174000", "112937.177000", "112937.180000", "112937.183000", "112937.186000", "112937.189000", "112937.191000", "112937.194000", "112937.197000", "112937.200000", "112937.203000", "112937.206000", "112937.209000", "112937.212000", "112937.215000", "112937.218000", "112937.221000", "113017.135000", "113017.138000", "113017.141000", "113017.144000", "113017.146000", "113017.149000", "113017.152000", "113017.155000", "113017.158000", "113017.161000", "113017.164000", "113017.167000", "113017.169000", "113017.178000", "113017.181000", "113017.183000", "113017.186000", "113017.189000", "113017.192000", "113017.195000", "113017.198000", "113017.201000", "113017.204000", "113017.207000", "113017.209000", "113017.212000", "113017.215000", "113017.218000", "113017.221000", "113017.224000", "113017.227000", "113017.229000", "113057.135000", "113057.138000", "113057.141000", "113057.144000", "113057.147000", "113057.150000", "113057.153000", "113057.155000", "113057.158000", "113057.161000", "113057.166000", "113057.169000", "113057.171000", "113057.174000", "113057.177000", "113057.180000", "113057.183000", "113057.186000", "113057.189000", "113057.192000", "113057.195000", "113057.198000", "113057.201000", "113057.203000", "113057.206000", "113057.209000", "113057.212000", "113057.215000", "113057.218000", "113057.221000", "113057.224000", "113137.134000", "113137.137000", "113137.140000", "113137.143000", "113137.146000", "113137.149000", "113137.152000", "113137.154000", "113137.157000", "113137.160000", "113137.172000", "113137.175000", "113137.178000", "113137.180000", "113137.183000", "113137.186000", "113137.189000", "113137.195000", "113137.198000", "113137.201000", "113137.203000", "113137.206000", "113137.209000", "113137.212000", "113137.215000", "113137.218000", "113137.221000", "113137.224000", "113137.226000", "113137.229000", "113137.232000", "113217.134000", "113217.137000", "113217.140000", "113217.143000", "113217.146000", "113217.149000", "113217.151000", "113217.154000", "113217.157000", "113217.160000", "113217.163000", "113217.166000", "113217.169000", "113217.171000", "113217.174000", "113217.177000", "113217.180000", "113217.183000", "113217.186000", "113217.189000", "113217.192000", "113217.195000", "113217.198000", "113217.201000", "113217.204000", "113217.207000", "113217.209000", "113217.212000", "113217.215000", "113217.218000", "113217.221000", "113257.135000", "113257.138000", "113257.141000", "113257.144000", "113257.147000", "113257.149000", "113257.152000", "113257.155000", "113257.158000", "113257.161000", "113257.164000", "113257.166000", "113257.169000", "113257.172000", "113257.175000", "113257.178000", "113257.181000", "113257.184000", "113257.187000", "113257.196000", "113257.199000", "113257.202000", "113257.205000", "113257.208000", "113257.210000", "113257.213000", "113257.216000", "113257.219000", "113257.222000", "113257.225000", "113257.228000", "113257.231000", "113337.134000", "113337.137000", "113337.140000", "113337.143000", "113337.146000", "113337.149000", "113337.152000", "113337.155000", "113337.158000", "113337.160000", "113337.163000", "113337.166000", "113337.169000", "113337.172000", "113337.175000", "113337.177000", "113337.180000", "113337.183000", "113337.186000", "113337.189000", "113337.192000", "113337.195000", "113337.197000", "113337.200000", "113337.203000", "113337.206000", "113337.209000", "113337.212000", "113337.215000", "113337.217000", "113337.220000", "113417.134000", "113417.137000", "113417.140000", "113417.143000", "113417.146000", "113417.149000", "113417.152000", "113417.155000", "113417.157000", "113417.160000", "113417.163000", "113417.166000", "113417.169000", "113417.172000", "113417.175000", "113417.178000", "113417.181000", "113417.183000", "113417.186000", "113417.189000", "113417.192000", "113417.195000", "113417.198000", "113417.201000", "113417.203000", "113417.206000", "113417.209000", "113417.212000", "113417.215000", "113417.218000", "113417.221000", "113457.135000", "113457.138000", "113457.141000", "113457.144000", "113457.147000", "113457.149000", "113457.152000", "113457.155000", "113457.158000", "113457.161000", "113457.164000", "113457.167000", "113457.170000", "113457.173000", "113457.175000", "113457.178000", "113457.181000", "113457.184000", "113457.187000", "113457.190000", "113457.193000", "113457.196000", "113457.199000", "113457.202000", "113457.205000", "113457.208000", "113457.211000", "113457.214000", "113457.217000", "113457.219000", "113457.222000", "113502.318000", "113502.322000", "113502.340000", "113502.344000", "113502.347000"],
      "InstanceCreationTime": ["112737.139000", "112737.142000", "112737.145000", "112737.148000", "112737.151000", "112737.154000", "112737.157000", "112737.159000", "112737.162000", "112737.165000", "112737.168000", "112737.174000", "112737.183000", "112737.186000", "112737.189000", "112737.192000", "112737.194000", "112737.197000", "112737.200000", "112737.203000", "112737.206000", "112737.209000", "112737.212000", "112737.214000", "112737.217000", "112817.135000", "112817.138000", "112817.141000", "112817.144000", "112817.147000", "112817.149000", "112817.152000", "112817.155000", "112817.158000", "112817.161000", "112817.164000", "112817.166000", "112817.169000", "112817.172000", "112817.175000", "112817.178000", "112817.181000", "112817.184000", "112817.186000", "112817.189000", "112817.192000", "112817.195000", "112817.198000", "112817.200000", "112817.203000", "112817.206000", "112817.209000", "112817.212000", "112817.215000", "112817.218000", "112817.221000", "112857.134000", "112857.137000", "112857.140000", "112857.143000", "112857.146000", "112857.149000", "112857.151000", "112857.154000", "112857.157000", "112857.160000", "112857.163000", "112857.166000", "112857.169000", "112857.172000", "112857.174000", "112857.177000", "112857.180000", "112857.183000", "112857.186000", "112857.188000", "112857.191000", "112857.194000", "112857.197000", "112857.200000", "112857.203000", "112857.206000", "112857.209000", "112857.211000", "112857.214000", "112857.217000", "112857.229000", "112937.134000", "112937.137000", "112937.140000", "112937.143000", "112937.146000", "112937.148000", "112937.151000", "112937.154000", "112937.157000", "112937.160000", "112937.163000", "112937.166000", "112937.168000", "112937.171000", "112937.174000", "112937.177000", "112937.180000", "112937.183000", "112937.186000", "112937.189000", "112937.191000", "112937.194000", "112937.197000", "112937.200000", "112937.203000", "112937.206000", "112937.209000", "112937.212000", "112937.215000", "112937.218000", "112937.221000", "113017.135000", "113017.138000", "113017.141000", "113017.144000", "113017.146000", "113017.149000", "113017.152000", "113017.155000", "113017.158000", "113017.161000", "113017.164000", "113017.167000", "113017.169000", "113017.178000", "113017.181000", "113017.183000", "113017.186000", "113017.189000", "113017.192000", "113017.195000", "113017.198000", "113017.201000", "113017.204000", "113017.207000", "113017.209000", "113017.212000", "113017.215000", "113017.218000", "113017.221000", "113017.224000", "113017.227000", "113017.229000", "113057.135000", "113057.138000", "113057.141000", "113057.144000", "113057.147000", "113057.150000", "113057.153000", "113057.155000", "113057.158000", "113057.161000", "113057.166000", "113057.169000", "113057.171000", "113057.174000", "113057.177000", "113057.180000", "113057.183000", "113057.186000", "113057.189000", "113057.192000", "113057.195000", "113057.198000", "113057.201000", "113057.203000", "113057.206000", "113057.209000", "113057.212000", "113057.215000", "113057.218000", "113057.221000", "113057.224000", "113137.134000", "113137.137000", "113137.140000", "113137.143000", "113137.146000", "113137.149000", "113137.152000", "113137.154000", "113137.157000", "113137.160000", "113137.172000", "113137.175000", "113137.178000", "113137.180000", "113137.183000", "113137.186000", "113137.189000", "113137.195000", "113137.198000", "113137.201000", "113137.203000", "113137.206000", "113137.209000", "113137.212000", "113137.215000", "113137.218000", "113137.221000", "113137.224000", "113137.226000", "113137.229000", "113137.232000", "113217.134000", "113217.137000", "113217.140000", "113217.143000", "113217.146000", "113217.149000", "113217.151000", "113217.154000", "113217.157000", "113217.160000", "113217.163000", "113217.166000", "113217.169000", "113217.171000", "113217.174000", "113217.177000", "113217.180000", "113217.183000", "113217.186000", "113217.189000", "113217.192000", "113217.195000", "113217.198000", "113217.201000", "113217.204000", "113217.207000", "113217.209000", "113217.212000", "113217.215000", "113217.218000", "113217.221000", "113257.135000", "113257.138000", "113257.141000", "113257.144000", "113257.147000", "113257.149000", "113257.152000", "113257.155000", "113257.158000", "113257.161000", "113257.164000", "113257.166000", "113257.169000", "113257.172000", "113257.175000", "113257.178000", "113257.181000", "113257.184000", "113257.187000", "113257.196000", "113257.199000", "113257.202000", "113257.205000", "113257.208000", "113257.210000", "113257.213000", "113257.216000", "113257.219000", "113257.222000", "113257.225000", "113257.228000", "113257.231000", "113337.134000", "113337.137000", "113337.140000", "113337.143000", "113337.146000", "113337.149000", "113337.152000", "113337.155000", "113337.158000", "113337.160000", "113337.163000", "113337.166000", "113337.169000", "113337.172000", "113337.175000", "113337.177000", "113337.180000", "113337.183000", "113337.186000", "113337.189000", "113337.192000", "113337.195000", "113337.197000", "113337.200000", "113337.203000", "113337.206000", "113337.209000", "113337.212000", "113337.215000", "113337.217000", "113337.220000", "113417.134000", "113417.137000", "113417.140000", "113417.143000", "113417.146000", "113417.149000", "113417.152000", "113417.155000", "113417.157000", "113417.160000", "113417.163000", "113417.166000", "113417.169000", "113417.172000", "113417.175000", "113417.178000", "113417.181000", "113417.183000", "113417.186000", "113417.189000", "113417.192000", "113417.195000", "113417.198000", "113417.201000", "113417.203000", "113417.206000", "113417.209000", "113417.212000", "113417.215000", "113417.218000", "113417.221000", "113457.135000", "113457.138000", "113457.141000", "113457.144000", "113457.147000", "113457.149000", "113457.152000", "113457.155000", "113457.158000", "113457.161000", "113457.164000", "113457.167000", "113457.170000", "113457.173000", "113457.175000", "113457.178000", "113457.181000", "113457.184000", "113457.187000", "113457.190000", "113457.193000", "113457.196000", "113457.199000", "113457.202000", "113457.205000", "113457.208000", "113457.211000", "113457.214000", "113457.217000", "113457.219000", "113457.222000", "113502.318000", "113502.322000", "113502.340000", "113502.344000", "113502.347000"],
      "InstanceNumber": [1, 2, 3, 4, 5, 6, 7, 8, 9, 10, 11, 12, 13, 14, 15, 16, 17, 18, 19, 20, 21, 22, 23, 24, 25, 26, 27, 28, 29, 30, 31, 32, 33, 34, 35, 36, 37, 38, 39, 40, 41, 42, 43, 44, 45, 46, 47, 48, 49, 50, 51, 52, 53, 54, 55, 56, 57, 58, 59, 60, 61, 62, 63, 64, 65, 66, 67, 68, 69, 70, 71, 72, 73, 74, 75, 76, 77, 78, 79, 80, 81, 82, 83, 84, 85, 86, 87, 88, 89, 90, 91, 92, 93, 94, 95, 96, 97, 98, 99, 100, 101, 102, 103, 104, 105, 106, 107, 108, 109, 110, 111, 112, 113, 114, 115, 116, 117, 118, 119, 120, 121, 122, 123, 124, 125, 126, 127, 128, 129, 130, 131, 132, 133, 134, 135, 136, 137, 138, 139, 140, 141, 142, 143, 144, 145, 146, 147, 148, 149, 150, 151, 152, 153, 154, 155, 156, 157, 158, 159, 160, 161, 162, 163, 164, 165, 166, 167, 168, 169, 170, 171, 172, 173, 174, 175, 176, 177, 178, 179, 180, 181, 182, 183, 184, 185, 186, 187, 188, 189, 190, 191, 192, 193, 194, 195, 196, 197, 198, 199, 200, 201, 202, 203, 204, 205, 206, 207, 208, 209, 210, 211, 212, 213, 214, 215, 216, 217, 218, 219, 220, 221, 222, 223, 224, 225, 226, 227, 228, 229, 230, 231, 232, 233, 234, 235, 236, 237, 238, 239, 240, 241, 242, 243, 244, 245, 246, 247, 248, 249, 250, 251, 252, 253, 254, 255, 256, 257, 258, 259, 260, 261, 262, 263, 264, 265, 266, 267, 268, 269, 270, 271, 272, 273, 274, 275, 276, 277, 278, 279, 280, 281, 282, 283, 284, 285, 286, 287, 288, 289, 290, 291, 292, 293, 294, 295, 296, 297, 298, 299, 300, 301, 302, 303, 304, 305, 306, 307, 308, 309, 310, 311, 312, 313, 314, 315, 316, 317, 318, 319, 320, 321, 322, 323, 324, 325, 326, 327, 328, 329, 330, 331, 332, 333, 334, 335, 336, 337, 338, 339, 340, 341, 342, 343, 344, 345, 346, 347, 348, 349, 350, 351, 352, 353, 354, 355, 356, 357, 358, 359, 360, 361, 362, 363, 364, 365, 366, 367, 368, 369, 370, 371, 372, 373],
