{
  "AcquisitionMatrixPE": 108,
  "AcquisitionNumber": 1,
  "AcquisitionTime": "11:45:49.140000",
  "BandwidthPerPixelPhaseEncode": 15.964,
  "BaseResolution": 108,
  "BodyPartExamined": "BRAIN",
  "ConsistencyInfo": "N4_VE11C_LATEST_20160120",
  "ConversionSoftware": "dcm2niix",
  "ConversionSoftwareVersion": "v1.0.20180622 GCC6.3.0",
  "DerivedVendorReportedEchoSpacing": 0.000580009,
  "DeviceSerialNumber": "66054",
  "DwellTime": 2.1e-06,
  "EchoTime": 0.031,
  "EchoTrainLength": 95,
  "EffectiveEchoSpacing": 0.000580009,
  "FlipAngle": 64,
  "ImageOrientationPatientDICOM": [0.999546, 0.0150042, -0.0261205, -0.0279199, 0.786986, -0.616339],
  "ImageType": [
    "ORIGINAL",
    "PRIMARY",
    "M",
    "ND",
    "MOSAIC"
],
  "InPlanePhaseEncodingDirectionDICOM": "COL",
  "InstitutionAddress": "Chemin_des_Mines_9_Geneve_District_CH_1211",
  "InstitutionName": "Fondation_Campus_Biotech_Geneva",
  "InstitutionalDepartmentName": "Department",
  "MRAcquisitionType": "2D",
  "MagneticFieldStrength": 3,
  "Manufacturer": "Siemens",
  "ManufacturersModelName": "Prisma",
  "Modality": "MR",
  "MultibandAccelerationFactor": 4,
  "PartialFourier": 0.875,
  "PatientPosition": "HFS",
  "PercentPhaseFOV": 100,
  "PhaseEncodingDirection": "j-",
  "PhaseEncodingSteps": 95,
  "PhaseResolution": 1,
  "PixelBandwidth": 2205,
  "ProcedureStepDescription": "J.DRM_Michael",
  "ProtocolName": "Rest_bold_s4_TR1.28",
  "PulseSequenceDetails": "%SiemensSeq%_ep2d_bold",
  "ReceiveCoilActiveElements": "HC1-7;NC1,2",
  "ReceiveCoilName": "HeadNeck_64",
  "ReconMatrixPE": 108,
  "RepetitionTime": 1.28,
  "SAR": 0.0715683,
  "ScanOptions": "PFP_FS",
  "ScanningSequence": "EP",
  "SequenceName": "_epfid2d1_108",
  "SequenceVariant": "SK",
  "SeriesDescription": "Rest_bold_s4_TR1.28",
  "SeriesNumber": 10,
  "ShimSetting": [-1253, -11645, 6433, 703, 214, 6, 154, 69],
  "SliceThickness": 2,
  "SliceTiming": [0.945, 0, 0.63, 0.0775, 0.7075, 0.1575, 0.7875, 0.235, 0.865, 0.3925, 1.0225, 0.4725, 1.1025, 0.55, 1.18, 0.315, 0.945, 0, 0.63, 0.0775, 0.7075, 0.1575, 0.7875, 0.235, 0.865, 0.3925, 1.0225, 0.4725, 1.1025, 0.55, 1.18, 0.315, 0.945, 0, 0.63, 0.0775, 0.7075, 0.1575, 0.7875, 0.235, 0.865, 0.3925, 1.0225, 0.4725, 1.1025, 0.55, 1.18, 0.315, 0.945, 0, 0.63, 0.0775, 0.7075, 0.1575, 0.7875, 0.235, 0.865, 0.3925, 1.0225, 0.4725, 1.1025, 0.55, 1.18, 0.315],
  "SoftwareVersions": "syngo_MR_E11",
  "SpacingBetweenSlices": 2,
  "StationName": "AWP66054",
  "TaskName": "rest",
  "TotalReadoutTime": 0.0620609,
  "TxRefAmp": 252.019,
  "dcmmeta_affine": [
    [-1.989837408065796, -0.05558120086789131, -0.022617608308792114, 108.08765411376953],
    [-0.029869504272937775, 1.566685438156128, -1.2335762977600098, -52.76380157470703],
    [-0.05199916288256645, 1.2269703149795532, 1.5740959644317627, -97.34101104736328],
    [0.0, 0.0, 0.0, 1.0]
],
  "dcmmeta_reorient_transform": [
    [0.0, -1.0, 0.0, 107.0],
    [1.0, 0.0, 0.0, 0.0],
    [0.0, 0.0, 1.0, 0.0],
    [0.0, 0.0, 0.0, 1.0]
],
  "dcmmeta_shape": [108, 108, 64, 250],
  "dcmmeta_slice_dim": 2,
  "dcmmeta_version": 0.6,
  "global": {
    "const": {
      "AccessionNumber": "",
      "AcquisitionMatrix": [108, 0, 0, 108],
      "AngioFlag": "N",
      "BitsAllocated": 16,
      "BitsStored": 12,
      "BodyPartExamined": "BRAIN",
      "Columns": 864,
      "EchoNumbers": 1,
      "EchoTime": 31.0,
      "EchoTrainLength": 95,
      "FlipAngle": 64.0,
      "HighBit": 11,
      "ImageOrientationPatient": [0.99954619326915, 0.01500421553618, -0.0261205098973, -0.0279198582648, 0.78698617810951, -0.6163385733337],
      "ImagePositionPatient": [-833.28929217343, -718.36932447264, 517.39528402832],
      "ImageType": [
        "ORIGINAL",
        "PRIMARY",
        "M",
        "ND",
        "MOSAIC"
],
      "ImagedNucleus": "1H",
      "ImagingFrequency": 123.257405,
      "InPlanePhaseEncodingDirection": "COL",
      "MRAcquisitionType": "2D",
      "MagneticFieldStrength": 3.0,
      "Manufacturer": "SIEMENS",
      "ManufacturerModelName": "Prisma",
      "Modality": "MR",
      "NumberOfAverages": 1.0,
      "NumberOfPhaseEncodingSteps": 95,
      "PercentPhaseFieldOfView": 100.0,
      "PercentSampling": 100.0,
      "PerformedProcedureStepStartTime": "105513.447000",
      "PhotometricInterpretation": "MONOCHROME2",
      "PixelBandwidth": 2205.0,
      "PixelRepresentation": 0,
      "PixelSpacing": [1.990740776062, 1.990740776062],
      "PositionReferenceIndicator": "",
      "ProtocolName": "Rest_bold_s4_TR1.28",
      "RepetitionTime": 1280.0,
      "Rows": 864,
      "SAR": 0.07156826197333,
      "SamplesPerPixel": 1,
      "ScanOptions": [
        "PFP",
        "FS"
],
      "ScanningSequence": "EP",
      "SequenceName": "*epfid2d1_108",
      "SequenceVariant": "SK",
      "SeriesDescription": "Rest_bold_s4_TR1.28",
      "SeriesNumber": 10,
      "SeriesTime": "114617.064000",
      "SliceLocation": -45.290295829993,
      "SliceThickness": 2.0,
      "SmallestImagePixelValue": 0,
      "SoftwareVersions": "syngo MR E11",
      "SpacingBetweenSlices": 2.0000000504576,
      "SpecificCharacterSet": "ISO_IR 100",
      "StudyID": "1",
      "StudyTime": "105513.295000",
      "TransmitCoilName": "Body",
      "VariableFlipAngleFlag": "N",
      "WindowCenterWidthExplanation": "Algo1",
      "dBdt": 0.0},
    "slices": {}
  },
  "time": {
    "samples": {
      "AcquisitionNumber": [1, 2, 3, 4, 5, 6, 7, 8, 9, 10, 11, 12, 13, 14, 15, 16, 17, 18, 19, 20, 21, 22, 23, 24, 25, 26, 27, 28, 29, 30, 31, 32, 33, 34, 35, 36, 37, 38, 39, 40, 41, 42, 43, 44, 45, 46, 47, 48, 49, 50, 51, 52, 53, 54, 55, 56, 57, 58, 59, 60, 61, 62, 63, 64, 65, 66, 67, 68, 69, 70, 71, 72, 73, 74, 75, 76, 77, 78, 79, 80, 81, 82, 83, 84, 85, 86, 87, 88, 89, 90, 91, 92, 93, 94, 95, 96, 97, 98, 99, 100, 101, 102, 103, 104, 105, 106, 107, 108, 109, 110, 111, 112, 113, 114, 115, 116, 117, 118, 119, 120, 121, 122, 123, 124, 125, 126, 127, 128, 129, 130, 131, 132, 133, 134, 135, 136, 137, 138, 139, 140, 141, 142, 143, 144, 145, 146, 147, 148, 149, 150, 151, 152, 153, 154, 155, 156, 157, 158, 159, 160, 161, 162, 163, 164, 165, 166, 167, 168, 169, 170, 171, 172, 173, 174, 175, 176, 177, 178, 179, 180, 181, 182, 183, 184, 185, 186, 187, 188, 189, 190, 191, 192, 193, 194, 195, 196, 197, 198, 199, 200, 201, 202, 203, 204, 205, 206, 207, 208, 209, 210, 211, 212, 213, 214, 215, 216, 217, 218, 219, 220, 221, 222, 223, 224, 225, 226, 227, 228, 229, 230, 231, 232, 233, 234, 235, 236, 237, 238, 239, 240, 241, 242, 243, 244, 245, 246, 247, 248, 249, 250],
      "AcquisitionTime": ["114549.140000", "114550.420000", "114551.700000", "114552.980000", "114554.260000", "114555.540000", "114556.820000", "114558.100000", "114559.380000", "114600.660000", "114601.940000", "114603.220000", "114604.500000", "114605.780000", "114607.060000", "114608.340000", "114609.620000", "114610.900000", "114612.180000", "114613.460000", "114614.740000", "114616.020000", "114617.300000", "114618.580000", "114619.860000", "114621.140000", "114622.420000", "114623.700000", "114624.980000", "114626.260000", "114627.540000", "114628.820000", "114630.100000", "114631.380000", "114632.660000", "114633.940000", "114635.220000", "114636.500000", "114637.780000", "114639.060000", "114640.340000", "114641.620000", "114642.900000", "114644.180000", "114645.460000", "114646.740000", "114648.020000", "114649.300000", "114650.580000", "114651.860000", "114653.140000", "114654.420000", "114655.700000", "114656.980000", "114658.260000", "114659.540000", "114700.820000", "114702.100000", "114703.380000", "114704.660000", "114705.940000", "114707.220000", "114708.500000", "114709.780000", "114711.060000", "114712.340000", "114713.620000", "114714.900000", "114716.180000", "114717.460000", "114718.740000", "114720.020000", "114721.300000", "114722.580000", "114723.860000", "114725.140000", "114726.420000", "114727.700000", "114728.980000", "114730.260000", "114731.540000", "114732.820000", "114734.100000", "114735.380000", "114736.660000", "114737.940000", "114739.220000", "114740.500000", "114741.780000", "114743.060000", "114744.340000", "114745.620000", "114746.900000", "114748.180000", "114749.460000", "114750.740000", "114752.020000", "114753.300000", "114754.580000", "114755.860000", "114757.140000", "114758.420000", "114759.700000", "114800.980000", "114802.260000", "114803.540000", "114804.820000", "114806.100000", "114807.380000", "114808.660000", "114809.940000", "114811.220000", "114812.500000", "114813.780000", "114815.060000", "114816.340000", "114817.620000", "114818.900000", "114820.180000", "114821.460000", "114822.740000", "114824.020000", "114825.300000", "114826.580000", "114827.860000", "114829.140000", "114830.420000", "114831.700000", "114832.980000", "114834.260000", "114835.540000", "114836.820000", "114838.100000", "114839.380000", "114840.660000", "114841.940000", "114843.220000", "114844.500000", "114845.780000", "114847.060000", "114848.340000", "114849.620000", "114850.900000", "114852.180000", "114853.460000", "114854.740000", "114856.020000", "114857.300000", "114858.580000", "114859.860000", "114901.140000", "114902.420000", "114903.700000", "114904.980000", "114906.260000", "114907.540000", "114908.820000", "114910.100000", "114911.380000", "114912.660000", "114913.940000", "114915.220000", "114916.500000", "114917.780000", "114919.060000", "114920.340000", "114921.620000", "114922.900000", "114924.180000", "114925.460000", "114926.740000", "114928.020000", "114929.300000", "114930.580000", "114931.860000", "114933.140000", "114934.420000", "114935.700000", "114936.980000", "114938.260000", "114939.540000", "114940.820000", "114942.100000", "114943.380000", "114944.660000", "114945.940000", "114947.220000", "114948.500000", "114949.780000", "114951.060000", "114952.340000", "114953.620000", "114954.900000", "114956.180000", "114957.460000", "114958.740000", "115000.020000", "115001.300000", "115002.580000", "115003.860000", "115005.140000", "115006.420000", "115007.700000", "115008.980000", "115010.260000", "115011.540000", "115012.820000", "115014.100000", "115015.380000", "115016.660000", "115017.940000", "115019.220000", "115020.500000", "115021.780000", "115023.060000", "115024.340000", "115025.620000", "115026.900000", "115028.180000", "115029.460000", "115030.740000", "115032.020000", "115033.300000", "115034.580000", "115035.860000", "115037.140000", "115038.420000", "115039.700000", "115040.980000", "115042.260000", "115043.540000", "115044.820000", "115046.100000", "115047.380000", "115048.660000", "115049.940000", "115051.220000", "115052.500000", "115053.780000", "115055.060000", "115056.340000", "115057.620000", "115058.900000", "115100.180000", "115101.460000", "115102.740000", "115104.020000", "115105.300000", "115106.580000", "115107.860000"],
      "ContentTime": ["114617.067000", "114617.071000", "114617.075000", "114617.084000", "114617.087000", "114617.096000", "114617.099000", "114617.102000", "114617.105000", "114617.108000", "114617.111000", "114617.113000", "114617.116000", "114617.119000", "114617.128000", "114617.131000", "114617.134000", "114617.137000", "114617.140000", "114617.142000", "114617.145000", "114657.064000", "114657.067000", "114657.070000", "114657.073000", "114657.076000", "114657.079000", "114657.082000", "114657.085000", "114657.087000", "114657.097000", "114657.100000", "114657.103000", "114657.106000", "114657.109000", "114657.112000", "114657.114000", "114657.117000", "114657.137000", "114657.139000", "114657.142000", "114657.145000", "114657.148000", "114657.151000", "114657.154000", "114657.156000", "114657.159000", "114657.162000", "114657.165000", "114657.168000", "114657.171000", "114657.174000", "114737.063000", "114737.066000", "114737.069000", "114737.072000", "114737.074000", "114737.077000", "114737.080000", "114737.083000", "114737.086000", "114737.089000", "114737.092000", "114737.095000", "114737.097000", "114737.100000", "114737.103000", "114737.106000", "114737.109000", "114737.112000", "114737.114000", "114737.117000", "114737.120000", "114737.123000", "114737.126000", "114737.129000", "114737.132000", "114737.134000", "114737.137000", "114737.140000", "114737.143000", "114737.146000", "114737.149000", "114817.063000", "114817.066000", "114817.069000", "114817.072000", "114817.075000", "114817.078000", "114817.080000", "114817.083000", "114817.086000", "114817.089000", "114817.092000", "114817.095000", "114817.097000", "114817.100000", "114817.103000", "114817.106000", "114817.109000", "114817.112000", "114817.115000", "114817.118000", "114817.121000", "114817.124000", "114817.127000", "114817.130000", "114817.133000", "114817.136000", "114817.138000", "114817.141000", "114817.144000", "114817.147000", "114817.150000", "114817.153000", "114857.064000", "114857.067000", "114857.070000", "114857.073000", "114857.076000", "114857.078000", "114857.081000", "114857.084000", "114857.087000", "114857.090000", "114857.093000", "114857.096000", "114857.099000", "114857.102000", "114857.104000", "114857.107000", "114857.110000", "114857.113000", "114857.116000", "114857.118000", "114857.121000", "114857.124000", "114857.127000", "114857.130000", "114857.133000", "114857.135000", "114857.138000", "114857.141000", "114857.144000", "114857.147000", "114857.150000", "114937.064000", "114937.067000", "114937.070000", "114937.073000", "114937.076000", "114937.078000", "114937.081000", "114937.084000", "114937.094000", "114937.097000", "114937.100000", "114937.103000", "114937.106000", "114937.109000", "114937.111000", "114937.114000", "114937.117000", "114937.120000", "114937.123000", "114937.126000", "114937.129000", "114937.131000", "114937.134000", "114937.137000", "114937.140000", "114937.143000", "114937.146000", "114937.149000", "114937.151000", "114937.154000", "114937.157000", "115017.063000", "115017.066000", "115017.069000", "115017.072000", "115017.075000", "115017.077000", "115017.080000", "115017.083000", "115017.086000", "115017.089000", "115017.092000", "115017.094000", "115017.097000", "115017.100000", "115017.103000", "115017.106000", "115017.109000", "115017.112000", "115017.114000", "115017.117000", "115017.120000", "115017.123000", "115017.126000", "115017.129000", "115017.131000", "115017.134000", "115017.137000", "115017.140000", "115017.143000", "115017.146000", "115017.156000", "115057.063000", "115057.066000", "115057.069000", "115057.072000", "115057.075000", "115057.077000", "115057.080000", "115057.083000", "115057.086000", "115057.089000", "115057.092000", "115057.095000", "115057.097000", "115057.100000", "115057.103000", "115057.106000", "115057.109000", "115057.112000", "115057.116000", "115057.118000", "115057.121000", "115057.124000", "115057.139000", "115057.142000", "115057.145000", "115057.148000", "115057.151000", "115057.154000", "115057.157000", "115057.159000", "115057.162000", "115057.165000", "115109.653000", "115109.658000", "115109.662000", "115109.666000", "115109.669000", "115109.674000", "115109.677000", "115109.685000", "115109.688000", "115109.691000"],
      "InstanceCreationTime": ["114617.067000", "114617.071000", "114617.075000", "114617.084000", "114617.087000", "114617.096000", "114617.099000", "114617.102000", "114617.105000", "114617.108000", "114617.111000", "114617.113000", "114617.116000", "114617.119000", "114617.128000", "114617.131000", "114617.134000", "114617.137000", "114617.140000", "114617.142000", "114617.145000", "114657.064000", "114657.067000", "114657.070000", "114657.073000", "114657.076000", "114657.079000", "114657.082000", "114657.085000", "114657.087000", "114657.097000", "114657.100000", "114657.103000", "114657.106000", "114657.109000", "114657.112000", "114657.114000", "114657.117000", "114657.137000", "114657.139000", "114657.142000", "114657.145000", "114657.148000", "114657.151000", "114657.154000", "114657.156000", "114657.159000", "114657.162000", "114657.165000", "114657.168000", "114657.171000", "114657.174000", "114737.063000", "114737.066000", "114737.069000", "114737.072000", "114737.074000", "114737.077000", "114737.080000", "114737.083000", "114737.086000", "114737.089000", "114737.092000", "114737.095000", "114737.097000", "114737.100000", "114737.103000", "114737.106000", "114737.109000", "114737.112000", "114737.114000", "114737.117000", "114737.120000", "114737.123000", "114737.126000", "114737.129000", "114737.132000", "114737.134000", "114737.137000", "114737.140000", "114737.143000", "114737.146000", "114737.149000", "114817.063000", "114817.066000", "114817.069000", "114817.072000", "114817.075000", "114817.078000", "114817.080000", "114817.083000", "114817.086000", "114817.089000", "114817.092000", "114817.095000", "114817.097000", "114817.100000", "114817.103000", "114817.106000", "114817.109000", "114817.112000", "114817.115000", "114817.118000", "114817.121000", "114817.124000", "114817.127000", "114817.130000", "114817.133000", "114817.136000", "114817.138000", "114817.141000", "114817.144000", "114817.147000", "114817.150000", "114817.153000", "114857.064000", "114857.067000", "114857.070000", "114857.073000", "114857.076000", "114857.078000", "114857.081000", "114857.084000", "114857.087000", "114857.090000", "114857.093000", "114857.096000", "114857.099000", "114857.102000", "114857.104000", "114857.107000", "114857.110000", "114857.113000", "114857.116000", "114857.118000", "114857.121000", "114857.124000", "114857.127000", "114857.130000", "114857.133000", "114857.135000", "114857.138000", "114857.141000", "114857.144000", "114857.147000", "114857.150000", "114937.064000", "114937.067000", "114937.070000", "114937.073000", "114937.076000", "114937.078000", "114937.081000", "114937.084000", "114937.094000", "114937.097000", "114937.100000", "114937.103000", "114937.106000", "114937.109000", "114937.111000", "114937.114000", "114937.117000", "114937.120000", "114937.123000", "114937.126000", "114937.129000", "114937.131000", "114937.134000", "114937.137000", "114937.140000", "114937.143000", "114937.146000", "114937.149000", "114937.151000", "114937.154000", "114937.157000", "115017.063000", "115017.066000", "115017.069000", "115017.072000", "115017.075000", "115017.077000", "115017.080000", "115017.083000", "115017.086000", "115017.089000", "115017.092000", "115017.094000", "115017.097000", "115017.100000", "115017.103000", "115017.106000", "115017.109000", "115017.112000", "115017.114000", "115017.117000", "115017.120000", "115017.123000", "115017.126000", "115017.129000", "115017.131000", "115017.134000", "115017.137000", "115017.140000", "115017.143000", "115017.146000", "115017.156000", "115057.063000", "115057.066000", "115057.069000", "115057.072000", "115057.075000", "115057.077000", "115057.080000", "115057.083000", "115057.086000", "115057.089000", "115057.092000", "115057.095000", "115057.097000", "115057.100000", "115057.103000", "115057.106000", "115057.109000", "115057.112000", "115057.116000", "115057.118000", "115057.121000", "115057.124000", "115057.139000", "115057.142000", "115057.145000", "115057.148000", "115057.151000", "115057.154000", "115057.157000", "115057.159000", "115057.162000", "115057.165000", "115109.653000", "115109.658000", "115109.662000", "115109.666000", "115109.669000", "115109.674000", "115109.677000", "115109.685000", "115109.688000", "115109.691000"],
      "InstanceNumber": [1, 2, 3, 4, 5, 6, 7, 8, 9, 10, 11, 12, 13, 14, 15, 16, 17, 18, 19, 20, 21, 22, 23, 24, 25, 26, 27, 28, 29, 30, 31, 32, 33, 34, 35, 36, 37, 38, 39, 40, 41, 42, 43, 44, 45, 46, 47, 48, 49, 50, 51, 52, 53, 54, 55, 56, 57, 58, 59, 60, 61, 62, 63, 64, 65, 66, 67, 68, 69, 70, 71, 72, 73, 74, 75, 76, 77, 78, 79, 80, 81, 82, 83, 84, 85, 86, 87, 88, 89, 90, 91, 92, 93, 94, 95, 96, 97, 98, 99, 100, 101, 102, 103, 104, 105, 106, 107, 108, 109, 110, 111, 112, 113, 114, 115, 116, 117, 118, 119, 120, 121, 122, 123, 124, 125, 126, 127, 128, 129, 130, 131, 132, 133, 134, 135, 136, 137, 138, 139, 140, 141, 142, 143, 144, 145, 146, 147, 148, 149, 150, 151, 152, 153, 154, 155, 156, 157, 158, 159, 160, 161, 162, 163, 164, 165, 166, 167, 168, 169, 170, 171, 172, 173, 174, 175, 176, 177, 178, 179, 180, 181, 182, 183, 184, 185, 186, 187, 188, 189, 190, 191, 192, 193, 194, 195, 196, 197, 198, 199, 200, 201, 202, 203, 204, 205, 206, 207, 208, 209, 210, 211, 212, 213, 214, 215, 216, 217, 218, 219, 220, 221, 222, 223, 224, 225, 226, 227, 228, 229, 230, 231, 232, 233, 234, 235, 236, 237, 238, 239, 240, 241, 242, 243, 244, 245, 246, 247, 248, 249, 250],
      "LargestImagePixelValue": [2598, 2559, 2525, 2475, 2476, 2463, 2464, 2472, 2440, 2478, 2465, 2442, 2454, 2500, 2428, 2465, 2464, 2494, 2462, 2497, 2471, 2504, 2486, 2465, 2461, 2473, 2482, 2476, 2430, 2433, 2447, 2463, 2475, 2463, 2445, 2466, 2449, 2478, 2494, 2495, 2469, 2489, 2494, 2469, 2486, 2487, 2496, 2449, 2466, 2495, 2488, 2467, 2452, 2510, 2452, 2497, 2446, 2472, 2447, 2484, 2463, 2517, 2497, 2469, 2443, 2462, 2475, 2478, 2481, 2502, 2492, 2467, 2483, 2484, 2452, 2485, 2504, 2499, 2524, 2542, 2518, 2509, 2495, 2527, 2537, 2517, 2548, 2509, 2500, 2474, 2500, 2500, 2515, 2518, 2507, 2499, 2512, 2499, 2512, 2488, 2489, 2468, 2479, 2511, 2462, 2498, 2472, 2468, 2456, 2476, 2463, 2473, 2461, 2451, 2482, 2468, 2499, 2484, 2503, 2489, 2512, 2528, 2501, 2529, 2519, 2564, 2558, 2552, 2515, 2547, 2662, 2550, 2545, 2525, 2520, 2530, 2524, 2552, 2500, 2522, 2535, 2512, 2520, 2530, 2496, 2524, 2511, 2533, 2498, 2534, 2525, 2522, 2509, 2500, 2438, 2450, 2476, 2467, 2459, 2471, 2494, 2460, 2488, 2482, 2487, 2446, 2461, 2461, 2483, 2476, 2453, 2468, 2467, 2482, 2442, 2490, 2454, 2471, 2466, 2496, 2472, 2484, 2490, 2495, 2455, 2468, 2437, 2469, 2448, 2457, 2436, 2465, 2494, 2463, 2444, 2469, 2458, 2489, 2428, 2474, 2469, 2473, 2486, 2469, 2443, 2460, 2443, 2439, 2442, 2414, 2434, 2418, 2415, 2371, 2376, 2372, 2372, 2390, 2366, 2382, 2365, 2366, 2375, 2359, 2371, 2370, 2369, 2352, 2360, 2372, 2368, 2350, 2367, 2371, 2371, 2352, 2343, 2361, 2380, 2391, 2347, 2385, 2384, 2378, 2344, 2367, 2400, 2361, 2597, 2409],
      "WindowCenter": [634.0, 631.0, 629.0, 629.0, 630.0, 630.0, 630.0, 630.0, 629.0, 629.0, 629.0, 630.0, 630.0, 631.0, 630.0, 630.0, 630.0, 630.0, 630.0, 630.0, 630.0, 630.0, 629.0, 629.0, 629.0, 629.0, 629.0, 628.0, 627.0, 627.0, 628.0, 629.0, 630.0, 630.0, 629.0, 629.0, 628.0, 628.0, 629.0, 630.0, 630.0, 631.0, 631.0, 630.0, 630.0, 630.0, 630.0, 630.0, 630.0, 631.0, 630.0, 630.0, 630.0, 630.0, 630.0, 630.0, 630.0, 630.0, 629.0, 629.0, 629.0, 630.0, 629.0, 630.0, 630.0, 630.0, 630.0, 630.0, 629.0, 629.0, 629.0, 629.0, 630.0, 630.0, 630.0, 630.0, 630.0, 630.0, 630.0, 630.0, 630.0, 630.0, 630.0, 631.0, 631.0, 630.0, 630.0, 630.0, 630.0, 630.0, 630.0, 630.0, 630.0, 630.0, 630.0, 630.0, 631.0, 631.0, 631.0, 630.0, 628.0, 627.0, 628.0, 629.0, 629.0, 629.0, 629.0, 629.0, 629.0, 629.0, 629.0, 629.0, 629.0, 629.0, 630.0, 630.0, 631.0, 631.0, 631.0, 631.0, 631.0, 632.0, 632.0, 632.0, 632.0, 633.0, 632.0, 632.0, 632.0, 633.0, 634.0, 633.0, 632.0, 631.0, 631.0, 631.0, 631.0, 631.0, 630.0, 630.0, 630.0, 629.0, 628.0, 628.0, 628.0, 628.0, 628.0, 629.0, 628.0, 628.0, 628.0, 627.0, 627.0, 628.0, 627.0, 628.0, 628.0, 628.0, 628.0, 629.0, 629.0, 629.0, 629.0, 630.0, 630.0, 630.0, 630.0, 630.0, 630.0, 630.0, 630.0, 630.0, 630.0, 631.0, 630.0, 630.0, 630.0, 630.0, 630.0, 630.0, 630.0, 630.0, 630.0, 630.0, 629.0, 629.0, 628.0, 628.0, 628.0, 629.0, 629.0, 629.0, 629.0, 629.0, 629.0, 629.0, 630.0, 630.0, 629.0, 630.0, 629.0, 629.0, 629.0, 629.0, 629.0, 629.0, 629.0, 629.0, 629.0, 629.0, 630.0, 631.0, 629.0, 628.0, 627.0, 628.0, 628.0, 629.0, 628.0, 628.0, 628.0, 628.0, 628.0, 628.0, 628.0, 628.0, 628.0, 628.0, 627.0, 627.0, 627.0, 627.0, 628.0, 629.0, 629.0, 629.0, 629.0, 629.0, 629.0, 629.0, 629.0, 629.0, 629.0, 629.0, 628.0, 628.0, 628.0, 628.0, 630.0, 628.0],
      "WindowWidth": [1348.0, 1341.0, 1336.0, 1336.0, 1338.0, 1339.0, 1338.0, 1337.0, 1336.0, 1336.0, 1337.0, 1338.0, 1339.0, 1341.0, 1338.0, 1338.0, 1338.0, 1339.0, 1339.0, 1339.0, 1338.0, 1338.0, 1336.0, 1336.0, 1336.0, 1336.0, 1336.0, 1334.0, 1332.0, 1332.0, 1334.0, 1336.0, 1337.0, 1337.0, 1337.0, 1335.0, 1333.0, 1334.0, 1337.0, 1338.0, 1339.0, 1341.0, 1342.0, 1340.0, 1339.0, 1339.0, 1338.0, 1338.0, 1338.0, 1340.0, 1339.0, 1339.0, 1339.0, 1339.0, 1338.0, 1338.0, 1338.0, 1338.0, 1337.0, 1337.0, 1337.0, 1338.0, 1337.0, 1338.0, 1338.0, 1338.0, 1338.0, 1338.0, 1337.0, 1336.0, 1337.0, 1337.0, 1338.0, 1338.0, 1338.0, 1339.0, 1339.0, 1339.0, 1339.0, 1338.0, 1338.0, 1338.0, 1339.0, 1340.0, 1341.0, 1339.0, 1339.0, 1338.0, 1338.0, 1339.0, 1339.0, 1338.0, 1339.0, 1338.0, 1338.0, 1339.0, 1340.0, 1340.0, 1340.0, 1337.0, 1334.0, 1332.0, 1333.0, 1335.0, 1336.0, 1337.0, 1337.0, 1335.0, 1335.0, 1335.0, 1335.0, 1335.0, 1335.0, 1336.0, 1337.0, 1339.0, 1340.0, 1340.0, 1341.0, 1340.0, 1341.0, 1342.0, 1342.0, 1343.0, 1343.0, 1344.0, 1344.0, 1344.0, 1343.0, 1346.0, 1348.0, 1345.0, 1343.0, 1341.0, 1341.0, 1340.0, 1340.0, 1339.0, 1338.0, 1337.0, 1337.0, 1335.0, 1334.0, 1333.0, 1333.0, 1334.0, 1334.0, 1336.0, 1335.0, 1334.0, 1333.0, 1332.0, 1332.0, 1333.0, 1332.0, 1333.0, 1334.0, 1334.0, 1334.0, 1335.0, 1337.0, 1337.0, 1337.0, 1338.0, 1338.0, 1338.0, 1338.0, 1338.0, 1338.0, 1337.0, 1337.0, 1338.0, 1339.0, 1340.0, 1338.0, 1339.0, 1338.0, 1338.0, 1338.0, 1339.0, 1339.0, 1339.0, 1339.0, 1338.0, 1337.0, 1337.0, 1335.0, 1334.0, 1334.0, 1335.0, 1336.0, 1336.0, 1337.0, 1335.0, 1336.0, 1337.0, 1338.0, 1339.0, 1337.0, 1337.0, 1336.0, 1336.0, 1336.0, 1337.0, 1337.0, 1337.0, 1336.0, 1336.0, 1336.0, 1336.0, 1339.0, 1340.0, 1336.0, 1333.0, 1332.0, 1333.0, 1334.0, 1336.0, 1335.0, 1335.0, 1335.0, 1334.0, 1333.0, 1333.0, 1333.0, 1334.0, 1334.0, 1333.0, 1331.0, 1331.0, 1332.0, 1333.0, 1334.0, 1336.0, 1336.0, 1335.0, 1337.0, 1337.0, 1337.0, 1337.0, 1336.0, 1336.0, 1336.0, 1337.0, 1334.0, 1334.0, 1334.0, 1334.0, 1337.0, 1335.0]
    },
    "slices": {}
  }
}