{
  "AcquisitionMatrixPE": 108,
  "AcquisitionNumber": 1,
  "AcquisitionTime": "12:08:14.900000",
  "BandwidthPerPixelPhaseEncode": 15.964,
  "BaseResolution": 108,
  "BodyPartExamined": "BRAIN",
  "ConsistencyInfo": "N4_VE11C_LATEST_20160120",
  "ConversionSoftware": "dcm2niix",
  "ConversionSoftwareVersion": "v1.0.20180622 GCC6.3.0",
  "DerivedVendorReportedEchoSpacing": 0.000580009,
  "DeviceSerialNumber": "66054",
  "DwellTime": 2.1e-06,
  "EchoTime": 0.031,
  "EchoTrainLength": 95,
  "EffectiveEchoSpacing": 0.000580009,
  "FlipAngle": 64,
  "ImageOrientationPatientDICOM": [0.99801, 0.0628264, -0.00533532, -0.061041, 0.941503, -0.331431],
  "ImageType": [
    "ORIGINAL",
    "PRIMARY",
    "M",
    "ND",
    "MOSAIC"
],
  "InPlanePhaseEncodingDirectionDICOM": "COL",
  "InstitutionAddress": "Chemin_des_Mines_9_Geneve_District_CH_1211",
  "InstitutionName": "Fondation_Campus_Biotech_Geneva",
  "InstitutionalDepartmentName": "Department",
  "MRAcquisitionType": "2D",
  "MagneticFieldStrength": 3,
  "Manufacturer": "Siemens",
  "ManufacturersModelName": "Prisma",
  "Modality": "MR",
  "MultibandAccelerationFactor": 4,
  "PartialFourier": 0.875,
  "PatientPosition": "HFS",
  "PercentPhaseFOV": 100,
  "PhaseEncodingDirection": "j-",
  "PhaseEncodingSteps": 95,
  "PhaseResolution": 1,
  "PixelBandwidth": 2205,
  "ProcedureStepDescription": "J.DRM_Michael",
  "ProtocolName": "Run5_bold_s4_TR1.28",
  "PulseSequenceDetails": "%SiemensSeq%_ep2d_bold",
  "ReceiveCoilActiveElements": "HC1-7;NC1,2",
  "ReceiveCoilName": "HeadNeck_64",
  "ReconMatrixPE": 108,
  "RepetitionTime": 1.28,
  "SAR": 0.0766253,
  "ScanOptions": "PFP_FS",
  "ScanningSequence": "EP",
  "SequenceName": "_epfid2d1_108",
  "SequenceVariant": "SK",
  "SeriesDescription": "Run5_bold_s4_TR1.28",
  "SeriesNumber": 13,
  "ShimSetting": [-1243, -11699, 6310, 626, 216, -405, 318, 6],
  "SliceThickness": 2,
  "SliceTiming": [0.945, 0, 0.63, 0.0775, 0.7075, 0.1575, 0.7875, 0.235, 0.865, 0.3925, 1.0225, 0.4725, 1.1025, 0.55, 1.18, 0.315, 0.945, 0, 0.63, 0.0775, 0.7075, 0.1575, 0.7875, 0.235, 0.865, 0.3925, 1.0225, 0.4725, 1.1025, 0.55, 1.18, 0.315, 0.945, 0, 0.63, 0.0775, 0.7075, 0.1575, 0.7875, 0.235, 0.865, 0.3925, 1.0225, 0.4725, 1.1025, 0.55, 1.18, 0.315, 0.945, 0, 0.63, 0.0775, 0.7075, 0.1575, 0.7875, 0.235, 0.865, 0.3925, 1.0225, 0.4725, 1.1025, 0.55, 1.18, 0.315],
  "SoftwareVersions": "syngo_MR_E11",
  "SpacingBetweenSlices": 2,
  "StationName": "AWP66054",
  "TaskName": "main",
  "TotalReadoutTime": 0.0620609,
  "TxRefAmp": 254.784,
  "dcmmeta_affine": [
    [-1.9867795705795288, -0.12151672691106796, 0.03159879148006439, 109.65276336669922],
    [-0.12507103383541107, 1.8742879629135132, -0.662194550037384, -61.7752685546875],
    [-0.010621241293847561, 0.6597933769226074, 1.886928677558899, -81.99578094482422],
    [0.0, 0.0, 0.0, 1.0]
],
  "dcmmeta_reorient_transform": [
    [0.0, -1.0, 0.0, 107.0],
    [1.0, 0.0, 0.0, 0.0],
    [0.0, 0.0, 1.0, 0.0],
    [0.0, 0.0, 0.0, 1.0]
],
  "dcmmeta_shape": [108, 108, 64, 373],
  "dcmmeta_slice_dim": 2,
  "dcmmeta_version": 0.6,
  "global": {
    "const": {
      "AccessionNumber": "",
      "AcquisitionMatrix": [108, 0, 0, 108],
      "AngioFlag": "N",
      "BitsAllocated": 16,
      "BitsStored": 12,
      "BodyPartExamined": "BRAIN",
      "Columns": 864,
      "EchoNumbers": 1,
      "EchoTime": 31.0,
      "EchoTrainLength": 95,
      "FlipAngle": 64.0,
      "HighBit": 11,
      "ImageOrientationPatient": [0.99801021053685, 0.0628263798997, -0.005335321254, -0.0610409595712, 0.94150275170642, -0.3314310935683],
      "ImagePositionPatient": [-801.71984728809, -894.53122547327, 242.01884112408],
      "ImageType": [
        "ORIGINAL",
        "PRIMARY",
        "M",
        "ND",
        "MOSAIC"
],
      "ImagedNucleus": "1H",
      "ImagingFrequency": 123.257523,
      "InPlanePhaseEncodingDirection": "COL",
      "MRAcquisitionType": "2D",
      "MagneticFieldStrength": 3.0,
      "Manufacturer": "SIEMENS",
      "ManufacturerModelName": "Prisma",
      "Modality": "MR",
      "NumberOfAverages": 1.0,
      "NumberOfPhaseEncodingSteps": 95,
      "PercentPhaseFieldOfView": 100.0,
      "PercentSampling": 100.0,
      "PerformedProcedureStepStartTime": "105118.909000",
      "PhotometricInterpretation": "MONOCHROME2",
      "PixelBandwidth": 2205.0,
      "PixelRepresentation": 0,
      "PixelSpacing": [1.990740776062, 1.990740776062],
      "PositionReferenceIndicator": "",
      "ProtocolName": "Run5_bold_s4_TR1.28",
      "RepetitionTime": 1280.0,
      "Rows": 864,
      "SAR": 0.07662528992787,
      "SamplesPerPixel": 1,
      "ScanOptions": [
        "PFP",
        "FS"
],
      "ScanningSequence": "EP",
      "SequenceName": "*epfid2d1_108",
      "SequenceVariant": "SK",
      "SeriesDescription": "Run5_bold_s4_TR1.28",
      "SeriesNumber": 13,
      "SeriesTime": "120825.636000",
      "SliceLocation": -55.174027165833,
      "SliceThickness": 2.0,
      "SmallestImagePixelValue": 0,
      "SoftwareVersions": "syngo MR E11",
      "SpacingBetweenSlices": 1.9999999411637,
      "SpecificCharacterSet": "ISO_IR 100",
      "StudyID": "1",
      "StudyTime": "105118.827000",
      "TransmitCoilName": "Body",
      "VariableFlipAngleFlag": "N",
      "WindowCenterWidthExplanation": "Algo1",
      "dBdt": 0.0},
    "slices": {}
  },
  "time": {
    "samples": {
      "AcquisitionNumber": [1, 2, 3, 4, 5, 6, 7, 8, 9, 10, 11, 12, 13, 14, 15, 16, 17, 18, 19, 20, 21, 22, 23, 24, 25, 26, 27, 28, 29, 30, 31, 32, 33, 34, 35, 36, 37, 38, 39, 40, 41, 42, 43, 44, 45, 46, 47, 48, 49, 50, 51, 52, 53, 54, 55, 56, 57, 58, 59, 60, 61, 62, 63, 64, 65, 66, 67, 68, 69, 70, 71, 72, 73, 74, 75, 76, 77, 78, 79, 80, 81, 82, 83, 84, 85, 86, 87, 88, 89, 90, 91, 92, 93, 94, 95, 96, 97, 98, 99, 100, 101, 102, 103, 104, 105, 106, 107, 108, 109, 110, 111, 112, 113, 114, 115, 116, 117, 118, 119, 120, 121, 122, 123, 124, 125, 126, 127, 128, 129, 130, 131, 132, 133, 134, 135, 136, 137, 138, 139, 140, 141, 142, 143, 144, 145, 146, 147, 148, 149, 150, 151, 152, 153, 154, 155, 156, 157, 158, 159, 160, 161, 162, 163, 164, 165, 166, 167, 168, 169, 170, 171, 172, 173, 174, 175, 176, 177, 178, 179, 180, 181, 182, 183, 184, 185, 186, 187, 188, 189, 190, 191, 192, 193, 194, 195, 196, 197, 198, 199, 200, 201, 202, 203, 204, 205, 206, 207, 208, 209, 210, 211, 212, 213, 214, 215, 216, 217, 218, 219, 220, 221, 222, 223, 224, 225, 226, 227, 228, 229, 230, 231, 232, 233, 234, 235, 236, 237, 238, 239, 240, 241, 242, 243, 244, 245, 246, 247, 248, 249, 250, 251, 252, 253, 254, 255, 256, 257, 258, 259, 260, 261, 262, 263, 264, 265, 266, 267, 268, 269, 270, 271, 272, 273, 274, 275, 276, 277, 278, 279, 280, 281, 282, 283, 284, 285, 286, 287, 288, 289, 290, 291, 292, 293, 294, 295, 296, 297, 298, 299, 300, 301, 302, 303, 304, 305, 306, 307, 308, 309, 310, 311, 312, 313, 314, 315, 316, 317, 318, 319, 320, 321, 322, 323, 324, 325, 326, 327, 328, 329, 330, 331, 332, 333, 334, 335, 336, 337, 338, 339, 340, 341, 342, 343, 344, 345, 346, 347, 348, 349, 350, 351, 352, 353, 354, 355, 356, 357, 358, 359, 360, 361, 362, 363, 364, 365, 366, 367, 368, 369, 370, 371, 372, 373],
      "AcquisitionTime": ["120814.900000", "120816.180000", "120817.460000", "120818.740000", "120820.020000", "120821.300000", "120822.580000", "120823.860000", "120825.140000", "120826.420000", "120827.700000", "120828.980000", "120830.260000", "120831.540000", "120832.820000", "120834.100000", "120835.380000", "120836.660000", "120837.940000", "120839.220000", "120840.500000", "120841.780000", "120843.060000", "120844.340000", "120845.620000", "120846.900000", "120848.180000", "120849.460000", "120850.740000", "120852.020000", "120853.300000", "120854.580000", "120855.860000", "120857.140000", "120858.420000", "120859.700000", "120900.980000", "120902.260000", "120903.540000", "120904.820000", "120906.100000", "120907.380000", "120908.660000", "120909.940000", "120911.220000", "120912.500000", "120913.780000", "120915.060000", "120916.340000", "120917.620000", "120918.900000", "120920.180000", "120921.460000", "120922.740000", "120924.020000", "120925.300000", "120926.580000", "120927.860000", "120929.140000", "120930.420000", "120931.700000", "120932.980000", "120934.260000", "120935.540000", "120936.820000", "120938.100000", "120939.380000", "120940.660000", "120941.940000", "120943.220000", "120944.500000", "120945.780000", "120947.060000", "120948.340000", "120949.620000", "120950.900000", "120952.180000", "120953.460000", "120954.740000", "120956.020000", "120957.300000", "120958.580000", "120959.860000", "121001.140000", "121002.420000", "121003.700000", "121004.980000", "121006.260000", "121007.540000", "121008.820000", "121010.100000", "121011.380000", "121012.660000", "121013.940000", "121015.220000", "121016.500000", "121017.780000", "121019.060000", "121020.340000", "121021.620000", "121022.900000", "121024.180000", "121025.460000", "121026.740000", "121028.020000", "121029.300000", "121030.580000", "121031.860000", "121033.140000", "121034.420000", "121035.700000", "121036.980000", "121038.260000", "121039.540000", "121040.820000", "121042.100000", "121043.380000", "121044.660000", "121045.940000", "121047.220000", "121048.500000", "121049.780000", "121051.060000", "121052.340000", "121053.620000", "121054.900000", "121056.180000", "121057.460000", "121058.740000", "121100.020000", "121101.300000", "121102.580000", "121103.860000", "121105.140000", "121106.420000", "121107.700000", "121108.980000", "121110.260000", "121111.540000", "121112.820000", "121114.100000", "121115.380000", "121116.660000", "121117.940000", "121119.220000", "121120.500000", "121121.780000", "121123.060000", "121124.340000", "121125.620000", "121126.900000", "121128.180000", "121129.460000", "121130.740000", "121132.020000", "121133.300000", "121134.580000", "121135.860000", "121137.140000", "121138.420000", "121139.700000", "121140.980000", "121142.260000", "121143.540000", "121144.820000", "121146.100000", "121147.380000", "121148.660000", "121149.940000", "121151.220000", "121152.500000", "121153.780000", "121155.060000", "121156.340000", "121157.620000", "121158.900000", "121200.180000", "121201.460000", "121202.740000", "121204.020000", "121205.300000", "121206.580000", "121207.860000", "121209.140000", "121210.420000", "121211.700000", "121212.980000", "121214.260000", "121215.540000", "121216.820000", "121218.100000", "121219.380000", "121220.660000", "121221.940000", "121223.220000", "121224.500000", "121225.780000", "121227.060000", "121228.340000", "121229.620000", "121230.900000", "121232.180000", "121233.460000", "121234.740000", "121236.020000", "121237.300000", "121238.580000", "121239.860000", "121241.140000", "121242.420000", "121243.700000", "121244.980000", "121246.260000", "121247.540000", "121248.820000", "121250.100000", "121251.380000", "121252.660000", "121253.940000", "121255.220000", "121256.500000", "121257.780000", "121259.060000", "121300.340000", "121301.620000", "121302.900000", "121304.180000", "121305.460000", "121306.740000", "121308.020000", "121309.300000", "121310.580000", "121311.860000", "121313.140000", "121314.420000", "121315.700000", "121316.980000", "121318.260000", "121319.540000", "121320.820000", "121322.100000", "121323.380000", "121324.660000", "121325.940000", "121327.220000", "121328.500000", "121329.780000", "121331.060000", "121332.340000", "121333.620000", "121334.900000", "121336.180000", "121337.460000", "121338.740000", "121340.020000", "121341.300000", "121342.580000", "121343.860000", "121345.140000", "121346.420000", "121347.700000", "121348.980000", "121350.260000", "121351.540000", "121352.820000", "121354.100000", "121355.380000", "121356.660000", "121357.940000", "121359.220000", "121400.500000", "121401.780000", "121403.060000", "121404.340000", "121405.620000", "121406.900000", "121408.180000", "121409.460000", "121410.740000", "121412.020000", "121413.300000", "121414.580000", "121415.860000", "121417.140000", "121418.420000", "121419.700000", "121420.980000", "121422.260000", "121423.540000", "121424.820000", "121426.100000", "121427.380000", "121428.660000", "121429.940000", "121431.220000", "121432.500000", "121433.780000", "121435.060000", "121436.340000", "121437.620000", "121438.900000", "121440.180000", "121441.460000", "121442.740000", "121444.020000", "121445.300000", "121446.580000", "121447.860000", "121449.140000", "121450.420000", "121451.700000", "121452.980000", "121454.260000", "121455.540000", "121456.820000", "121458.100000", "121459.380000", "121500.660000", "121501.940000", "121503.220000", "121504.500000", "121505.780000", "121507.060000", "121508.340000", "121509.620000", "121510.900000", "121512.180000", "121513.460000", "121514.740000", "121516.020000", "121517.300000", "121518.580000", "121519.860000", "121521.140000", "121522.420000", "121523.700000", "121524.980000", "121526.260000", "121527.540000", "121528.820000", "121530.100000", "121531.380000", "121532.660000", "121533.940000", "121535.220000", "121536.500000", "121537.780000", "121539.060000", "121540.340000", "121541.620000", "121542.900000", "121544.180000", "121545.460000", "121546.740000", "121548.020000", "121549.300000", "121550.580000", "121551.860000", "121553.140000", "121554.420000", "121555.700000", "121556.980000", "121558.260000", "121559.540000", "121600.820000", "121602.100000", "121603.380000", "121604.660000", "121605.940000", "121607.220000", "121608.500000", "121609.780000", "121611.060000"],
      "ContentTime": ["120825.640000", "120825.644000", "120825.647000", "120825.650000", "120825.653000", "120825.656000", "120825.659000", "120825.662000", "120905.636000", "120905.639000", "120905.642000", "120905.645000", "120905.648000", "120905.656000", "120905.659000", "120905.662000", "120905.665000", "120905.668000", "120905.671000", "120905.674000", "120905.677000", "120905.679000", "120905.682000", "120905.685000", "120905.688000", "120905.691000", "120905.694000", "120905.697000", "120905.700000", "120905.703000", "120905.706000", "120905.709000", "120905.712000", "120905.715000", "120905.718000", "120905.721000", "120905.724000", "120905.726000", "120905.730000", "120945.635000", "120945.638000", "120945.641000", "120945.644000", "120945.647000", "120945.650000", "120945.653000", "120945.656000", "120945.659000", "120945.662000", "120945.665000", "120945.668000", "120945.671000", "120945.674000", "120945.677000", "120945.680000", "120945.682000", "120945.685000", "120945.688000", "120945.691000", "120945.694000", "120945.697000", "120945.700000", "120945.703000", "120945.706000", "120945.709000", "120945.712000", "120945.715000", "120945.717000", "120945.721000", "120945.723000", "121025.635000", "121025.638000", "121025.641000", "121025.644000", "121025.647000", "121025.650000", "121025.653000", "121025.656000", "121025.659000", "121025.662000", "121025.665000", "121025.667000", "121025.671000", "121025.674000", "121025.676000", "121025.679000", "121025.682000", "121025.685000", "121025.688000", "121025.691000", "121025.694000", "121025.697000", "121025.707000", "121025.710000", "121025.713000", "121025.716000", "121025.719000", "121025.722000", "121025.725000", "121025.728000", "121025.731000", "121105.635000", "121105.638000", "121105.641000", "121105.644000", "121105.647000", "121105.650000", "121105.653000", "121105.656000", "121105.666000", "121105.669000", "121105.672000", "121105.675000", "121105.678000", "121105.681000", "121105.684000", "121105.688000", "121105.691000", "121105.694000", "121105.697000", "121105.699000", "121105.702000", "121105.705000", "121105.708000", "121105.711000", "121105.714000", "121105.717000", "121105.720000", "121105.723000", "121105.726000", "121105.739000", "121105.742000", "121105.745000", "121145.635000", "121145.638000", "121145.641000", "121145.644000", "121145.647000", "121145.650000", "121145.653000", "121145.656000", "121145.659000", "121145.662000", "121145.665000", "121145.668000", "121145.671000", "121145.674000", "121145.677000", "121145.680000", "121145.683000", "121145.686000", "121145.688000", "121145.691000", "121145.694000", "121145.697000", "121145.700000", "121145.703000", "121145.706000", "121145.709000", "121145.712000", "121145.715000", "121145.718000", "121145.721000", "121145.724000", "121225.635000", "121225.638000", "121225.654000", "121225.657000", "121225.660000", "121225.662000", "121225.666000", "121225.668000", "121225.671000", "121225.674000", "121225.677000", "121225.680000", "121225.683000", "121225.686000", "121225.689000", "121225.692000", "121225.695000", "121225.698000", "121225.701000", "121225.704000", "121225.707000", "121225.710000", "121225.713000", "121225.716000", "121225.718000", "121225.721000", "121225.724000", "121225.727000", "121225.730000", "121225.733000", "121225.737000", "121305.635000", "121305.638000", "121305.641000", "121305.644000", "121305.647000", "121305.650000", "121305.653000", "121305.656000", "121305.659000", "121305.662000", "121305.665000", "121305.668000", "121305.671000", "121305.674000", "121305.677000", "121305.680000", "121305.683000", "121305.686000", "121305.689000", "121305.692000", "121305.695000", "121305.698000", "121305.701000", "121305.703000", "121305.706000", "121305.709000", "121305.712000", "121305.715000", "121305.718000", "121305.721000", "121305.724000", "121345.635000", "121345.638000", "121345.641000", "121345.644000", "121345.647000", "121345.650000", "121345.653000", "121345.656000", "121345.659000", "121345.662000", "121345.665000", "121345.668000", "121345.671000", "121345.673000", "121345.677000", "121345.679000", "121345.682000", "121345.686000", "121345.689000", "121345.692000", "121345.695000", "121345.698000", "121345.701000", "121345.704000", "121345.707000", "121345.714000", "121345.717000", "121345.720000", "121345.723000", "121345.726000", "121345.729000", "121345.732000", "121425.635000", "121425.638000", "121425.641000", "121425.644000", "121425.647000", "121425.650000", "121425.653000", "121425.656000", "121425.659000", "121425.662000", "121425.665000", "121425.668000", "121425.671000", "121425.674000", "121425.677000", "121425.680000", "121425.690000", "121425.693000", "121425.696000", "121425.699000", "121425.702000", "121425.705000", "121425.708000", "121425.711000", "121425.714000", "121425.717000", "121425.719000", "121425.722000", "121425.725000", "121425.728000", "121425.731000", "121505.635000", "121505.638000", "121505.641000", "121505.644000", "121505.647000", "121505.650000", "121505.653000", "121505.656000", "121505.659000", "121505.662000", "121505.665000", "121505.668000", "121505.671000", "121505.674000", "121505.676000", "121505.679000", "121505.682000", "121505.685000", "121505.688000", "121505.691000", "121505.694000", "121505.697000", "121505.700000", "121505.703000", "121505.706000", "121505.709000", "121505.712000", "121505.715000", "121505.718000", "121505.721000", "121505.724000", "121545.635000", "121545.638000", "121545.641000", "121545.644000", "121545.647000", "121545.650000", "121545.653000", "121545.656000", "121545.659000", "121545.662000", "121545.665000", "121545.667000", "121545.670000", "121545.673000", "121545.676000", "121545.679000", "121545.682000", "121545.685000", "121545.688000", "121545.691000", "121545.694000", "121545.697000", "121545.699000", "121545.702000", "121545.715000", "121545.730000", "121545.733000", "121545.736000", "121545.739000", "121545.741000", "121545.744000", "121612.809000", "121612.813000", "121612.817000", "121612.820000", "121612.823000", "121612.828000", "121612.833000", "121612.836000", "121612.840000", "121612.844000", "121612.855000", "121612.859000", "121612.862000", "121612.866000", "121612.869000", "121612.872000", "121612.875000", "121612.878000", "121612.882000", "121612.885000", "121612.888000", "121612.891000"],
      "InstanceCreationTime": ["120825.640000", "120825.644000", "120825.647000", "120825.650000", "120825.653000", "120825.656000", "120825.659000", "120825.662000", "120905.636000", "120905.639000", "120905.642000", "120905.645000", "120905.648000", "120905.656000", "120905.659000", "120905.662000", "120905.665000", "120905.668000", "120905.671000", "120905.674000", "120905.677000", "120905.679000", "120905.682000", "120905.685000", "120905.688000", "120905.691000", "120905.694000", "120905.697000", "120905.700000", "120905.703000", "120905.706000", "120905.709000", "120905.712000", "120905.715000", "120905.718000", "120905.721000", "120905.724000", "120905.726000", "120905.730000", "120945.635000", "120945.638000", "120945.641000", "120945.644000", "120945.647000", "120945.650000", "120945.653000", "120945.656000", "120945.659000", "120945.662000", "120945.665000", "120945.668000", "120945.671000", "120945.674000", "120945.677000", "120945.680000", "120945.682000", "120945.685000", "120945.688000", "120945.691000", "120945.694000", "120945.697000", "120945.700000", "120945.703000", "120945.706000", "120945.709000", "120945.712000", "120945.715000", "120945.717000", "120945.721000", "120945.723000", "121025.635000", "121025.638000", "121025.641000", "121025.644000", "121025.647000", "121025.650000", "121025.653000", "121025.656000", "121025.659000", "121025.662000", "121025.665000", "121025.667000", "121025.671000", "121025.674000", "121025.676000", "121025.679000", "121025.682000", "121025.685000", "121025.688000", "121025.691000", "121025.694000", "121025.697000", "121025.707000", "121025.710000", "121025.713000", "121025.716000", "121025.719000", "121025.722000", "121025.725000", "121025.728000", "121025.731000", "121105.635000", "121105.638000", "121105.641000", "121105.644000", "121105.647000", "121105.650000", "121105.653000", "121105.656000", "121105.666000", "121105.669000", "121105.672000", "121105.675000", "121105.678000", "121105.681000", "121105.684000", "121105.688000", "121105.691000", "121105.694000", "121105.697000", "121105.699000", "121105.702000", "121105.705000", "121105.708000", "121105.711000", "121105.714000", "121105.717000", "121105.720000", "121105.723000", "121105.726000", "121105.739000", "121105.742000", "121105.745000", "121145.635000", "121145.638000", "121145.641000", "121145.644000", "121145.647000", "121145.650000", "121145.653000", "121145.656000", "121145.659000", "121145.662000", "121145.665000", "121145.668000", "121145.671000", "121145.674000", "121145.677000", "121145.680000", "121145.683000", "121145.686000", "121145.688000", "121145.691000", "121145.694000", "121145.697000", "121145.700000", "121145.703000", "121145.706000", "121145.709000", "121145.712000", "121145.715000", "121145.718000", "121145.721000", "121145.724000", "121225.635000", "121225.638000", "121225.654000", "121225.657000", "121225.660000", "121225.662000", "121225.666000", "121225.668000", "121225.671000", "121225.674000", "121225.677000", "121225.680000", "121225.683000", "121225.686000", "121225.689000", "121225.692000", "121225.695000", "121225.698000", "121225.701000", "121225.704000", "121225.707000", "121225.710000", "121225.713000", "121225.716000", "121225.718000", "121225.721000", "121225.724000", "121225.727000", "121225.730000", "121225.733000", "121225.737000", "121305.635000", "121305.638000", "121305.641000", "121305.644000", "121305.647000", "121305.650000", "121305.653000", "121305.656000", "121305.659000", "121305.662000", "121305.665000", "121305.668000", "121305.671000", "121305.674000", "121305.677000", "121305.680000", "121305.683000", "121305.686000", "121305.689000", "121305.692000", "121305.695000", "121305.698000", "121305.701000", "121305.703000", "121305.706000", "121305.709000", "121305.712000", "121305.715000", "121305.718000", "121305.721000", "121305.724000", "121345.635000", "121345.638000", "121345.641000", "121345.644000", "121345.647000", "121345.650000", "121345.653000", "121345.656000", "121345.659000", "121345.662000", "121345.665000", "121345.668000", "121345.671000", "121345.673000", "121345.677000", "121345.679000", "121345.682000", "121345.686000", "121345.689000", "121345.692000", "121345.695000", "121345.698000", "121345.701000", "121345.704000", "121345.707000", "121345.714000", "121345.717000", "121345.720000", "121345.723000", "121345.726000", "121345.729000", "121345.732000", "121425.635000", "121425.638000", "121425.641000", "121425.644000", "121425.647000", "121425.650000", "121425.653000", "121425.656000", "121425.659000", "121425.662000", "121425.665000", "121425.668000", "121425.671000", "121425.674000", "121425.677000", "121425.680000", "121425.690000", "121425.693000", "121425.696000", "121425.699000", "121425.702000", "121425.705000", "121425.708000", "121425.711000", "121425.714000", "121425.717000", "121425.719000", "121425.722000", "121425.725000", "121425.728000", "121425.731000", "121505.635000", "121505.638000", "121505.641000", "121505.644000", "121505.647000", "121505.650000", "121505.653000", "121505.656000", "121505.659000", "121505.662000", "121505.665000", "121505.668000", "121505.671000", "121505.674000", "121505.676000", "121505.679000", "121505.682000", "121505.685000", "121505.688000", "121505.691000", "121505.694000", "121505.697000", "121505.700000", "121505.703000", "121505.706000", "121505.709000", "121505.712000", "121505.715000", "121505.718000", "121505.721000", "121505.724000", "121545.635000", "121545.638000", "121545.641000", "121545.644000", "121545.647000", "121545.650000", "121545.653000", "121545.656000", "121545.659000", "121545.662000", "121545.665000", "121545.667000", "121545.670000", "121545.673000", "121545.676000", "121545.679000", "121545.682000", "121545.685000", "121545.688000", "121545.691000", "121545.694000", "121545.697000", "121545.699000", "121545.702000", "121545.715000", "121545.730000", "121545.733000", "121545.736000", "121545.739000", "121545.741000", "121545.744000", "121612.809000", "121612.813000", "121612.817000", "121612.820000", "121612.823000", "121612.828000", "121612.833000", "121612.836000", "121612.840000", "121612.844000", "121612.855000", "121612.859000", "121612.862000", "121612.866000", "121612.869000", "121612.872000", "121612.875000", "121612.878000", "121612.882000", "121612.885000", "121612.888000", "121612.891000"],
      "InstanceNumber": [1, 2, 3, 4, 5, 6, 7, 8, 9, 10, 11, 12, 13, 14, 15, 16, 17, 18, 19, 20, 21, 22, 23, 24, 25, 26, 27, 28, 29, 30, 31, 32, 33, 34, 35, 36, 37, 38, 39, 40, 41, 42, 43, 44, 45, 46, 47, 48, 49, 50, 51, 52, 53, 54, 55, 56, 57, 58, 59, 60, 61, 62, 63, 64, 65, 66, 67, 68, 69, 70, 71, 72, 73, 74, 75, 76, 77, 78, 79, 80, 81, 82, 83, 84, 85, 86, 87, 88, 89, 90, 91, 92, 93, 94, 95, 96, 97, 98, 99, 100, 101, 102, 103, 104, 105, 106, 107, 108, 109, 110, 111, 112, 113, 114, 115, 116, 117, 118, 119, 120, 121, 122, 123, 124, 125, 126, 127, 128, 129, 130, 131, 132, 133, 134, 135, 136, 137, 138, 139, 140, 141, 142, 143, 144, 145, 146, 147, 148, 149, 150, 151, 152, 153, 154, 155, 156, 157, 158, 159, 160, 161, 162, 163, 164, 165, 166, 167, 168, 169, 170, 171, 172, 173, 174, 175, 176, 177, 178, 179, 180, 181, 182, 183, 184, 185, 186, 187, 188, 189, 190, 191, 192, 193, 194, 195, 196, 197, 198, 199, 200, 201, 202, 203, 204, 205, 206, 207, 208, 209, 210, 211, 212, 213, 214, 215, 216, 217, 218, 219, 220, 221, 222, 223, 224, 225, 226, 227, 228, 229, 230, 231, 232, 233, 234, 235, 236, 237, 238, 239, 240, 241, 242, 243, 244, 245, 246, 247, 248, 249, 250, 251, 252, 253, 254, 255, 256, 257, 258, 259, 260, 261, 262, 263, 264, 265, 266, 267, 268, 269, 270, 271, 272, 273, 274, 275, 276, 277, 278, 279, 280, 281, 282, 283, 284, 285, 286, 287, 288, 289, 290, 291, 292, 293, 294, 295, 296, 297, 298, 299, 300, 301, 302, 303, 304, 305, 306, 307, 308, 309, 310, 311, 312, 313, 314, 315, 316, 317, 318, 319, 320, 321, 322, 323, 324, 325, 326, 327, 328, 329, 330, 331, 332, 333, 334, 335, 336, 337, 338, 339, 340, 341, 342, 343, 344, 345, 346, 347, 348, 349, 350, 351, 352, 353, 354, 355, 356, 357, 358, 359, 360, 361, 362, 363, 364, 365, 366, 367, 368, 369, 370, 371, 372, 373],
