{
  "AcquisitionMatrixPE": 108,
  "AcquisitionNumber": 1,
  "AcquisitionTime": "14:54:5.812500",
  "BandwidthPerPixelPhaseEncode": 15.964,
  "BaseResolution": 108,
  "BodyPartExamined": "BRAIN",
  "ConsistencyInfo": "N4_VE11C_LATEST_20160120",
  "ConversionSoftware": "dcm2niix",
  "ConversionSoftwareVersion": "v1.0.20180622 GCC6.3.0",
  "DerivedVendorReportedEchoSpacing": 0.000580009,
  "DeviceSerialNumber": "66054",
  "DwellTime": 2.1e-06,
  "EchoTime": 0.031,
  "EchoTrainLength": 95,
  "EffectiveEchoSpacing": 0.000580009,
  "FlipAngle": 64,
  "ImageOrientationPatientDICOM": [0.995096, -0.0959071, -0.0242171, 0.0853098, 0.956009, -0.280657],
  "ImageType": [
    "ORIGINAL",
    "PRIMARY",
    "M",
    "ND",
    "MOSAIC"
],
  "InPlanePhaseEncodingDirectionDICOM": "COL",
  "InstitutionAddress": "Chemin_des_Mines_9_Geneve_District_CH_1211",
  "InstitutionName": "Fondation_Campus_Biotech_Geneva",
  "InstitutionalDepartmentName": "Department",
  "MRAcquisitionType": "2D",
  "MagneticFieldStrength": 3,
  "Manufacturer": "Siemens",
  "ManufacturersModelName": "Prisma",
  "Modality": "MR",
  "MultibandAccelerationFactor": 4,
  "PartialFourier": 0.875,
  "PatientPosition": "HFS",
  "PercentPhaseFOV": 100,
  "PhaseEncodingDirection": "j-",
  "PhaseEncodingSteps": 95,
  "PhaseResolution": 1,
  "PixelBandwidth": 2205,
  "ProcedureStepDescription": "J.DRM_Michael",
  "ProtocolName": "Run1_bold_s4_TR1.28",
  "PulseSequenceDetails": "%SiemensSeq%_ep2d_bold",
  "ReceiveCoilActiveElements": "HC1-7;NC1,2",
  "ReceiveCoilName": "HeadNeck_64",
  "ReconMatrixPE": 108,
  "RepetitionTime": 1.28,
  "SAR": 0.0700036,
  "ScanOptions": "PFP_FS",
  "ScanningSequence": "EP",
  "SequenceName": "_epfid2d1_108",
  "SequenceVariant": "SK",
  "SeriesDescription": "Run1_bold_s4_TR1.28",
  "SeriesNumber": 5,
  "ShimSetting": [-1247, -11662, 6430, 611, 173, 91, 52, 21],
  "SliceThickness": 2,
  "SliceTiming": [0.945, 0, 0.63, 0.08, 0.71, 0.1575, 0.7875, 0.2375, 0.8675, 0.395, 1.025, 0.4725, 1.1025, 0.5525, 1.1825, 0.315, 0.945, 0, 0.63, 0.08, 0.71, 0.1575, 0.7875, 0.2375, 0.8675, 0.395, 1.025, 0.4725, 1.1025, 0.5525, 1.1825, 0.315, 0.945, 0, 0.63, 0.08, 0.71, 0.1575, 0.7875, 0.2375, 0.8675, 0.395, 1.025, 0.4725, 1.1025, 0.5525, 1.1825, 0.315, 0.945, 0, 0.63, 0.08, 0.71, 0.1575, 0.7875, 0.2375, 0.8675, 0.395, 1.025, 0.4725, 1.1025, 0.5525, 1.1825, 0.315],
  "SoftwareVersions": "syngo_MR_E11",
  "SpacingBetweenSlices": 2,
  "StationName": "AWP66054",
  "TaskName": "main",
  "TotalReadoutTime": 0.0620609,
  "TxRefAmp": 260.639,
  "dcmmeta_affine": [
    [-1.9809775352478027, 0.16982965171337128, -0.1001376062631607, 98.7686996459961],
    [0.1909262090921402, 1.903166651725769, -0.554429829120636, -91.8202133178711],
    [-0.048209961503744125, 0.5587159395217896, 1.919005036354065, -82.48870086669922],
    [0.0, 0.0, 0.0, 1.0]
],
  "dcmmeta_reorient_transform": [
    [0.0, -1.0, 0.0, 107.0],
    [1.0, 0.0, 0.0, 0.0],
    [0.0, 0.0, 1.0, 0.0],
    [0.0, 0.0, 0.0, 1.0]
],
  "dcmmeta_shape": [108, 108, 64, 373],
  "dcmmeta_slice_dim": 2,
  "dcmmeta_version": 0.6,
  "global": {
    "const": {
      "AccessionNumber": "",
      "AcquisitionMatrix": [108, 0, 0, 108],
      "AngioFlag": "N",
      "BitsAllocated": 16,
      "BitsStored": 12,
      "BodyPartExamined": "BRAIN",
      "Columns": 864,
      "EchoNumbers": 1,
      "EchoTime": 31.0,
      "EchoTrainLength": 95,
      "FlipAngle": 64.0,
      "HighBit": 11,
      "ImageOrientationPatient": [0.99509565211105, -0.0959071187416, -0.0242170957044, 0.08530977856609, 0.95600926851978, -0.2806573002529],
      "ImagePositionPatient": [-929.9455756367, -759.04549361666, 206.71189026566],
      "ImageType": [
        "ORIGINAL",
        "PRIMARY",
        "M",
        "ND",
        "MOSAIC"
],
      "ImagedNucleus": "1H",
      "ImagingFrequency": 123.257422,
      "InPlanePhaseEncodingDirection": "COL",
      "MRAcquisitionType": "2D",
      "MagneticFieldStrength": 3.0,
      "Manufacturer": "SIEMENS",
      "ManufacturerModelName": "Prisma",
      "Modality": "MR",
      "NumberOfAverages": 1.0,
      "NumberOfPhaseEncodingSteps": 95,
      "PercentPhaseFieldOfView": 100.0,
      "PercentSampling": 100.0,
      "PerformedProcedureStepStartTime": "142751.376000",
      "PhotometricInterpretation": "MONOCHROME2",
      "PixelBandwidth": 2205.0,
      "PixelRepresentation": 0,
      "PixelSpacing": [1.990740776062, 1.990740776062],
      "PositionReferenceIndicator": "",
      "ProtocolName": "Run1_bold_s4_TR1.28",
      "RepetitionTime": 1280.0,
      "Rows": 864,
      "SAR": 0.07000356230149,
      "SamplesPerPixel": 1,
      "ScanOptions": [
        "PFP",
        "FS"
],
      "ScanningSequence": "EP",
      "SequenceName": "*epfid2d1_108",
      "SequenceVariant": "SK",
      "SeriesDescription": "Run1_bold_s4_TR1.28",
      "SeriesNumber": 5,
      "SeriesTime": "145449.857000",
      "SliceLocation": -58.639412018848,
      "SliceThickness": 2.0,
      "SmallestImagePixelValue": 0,
      "SoftwareVersions": "syngo MR E11",
      "SpacingBetweenSlices": 2.0000000508259,
      "SpecificCharacterSet": "ISO_IR 100",
      "StudyID": "1",
      "StudyTime": "142751.272000",
      "TransmitCoilName": "Body",
      "VariableFlipAngleFlag": "N",
      "WindowCenterWidthExplanation": "Algo1",
      "dBdt": 0.0},
    "slices": {}
  },
  "time": {
    "samples": {
      "AcquisitionNumber": [1, 2, 3, 4, 5, 6, 7, 8, 9, 10, 11, 12, 13, 14, 15, 16, 17, 18, 19, 20, 21, 22, 23, 24, 25, 26, 27, 28, 29, 30, 31, 32, 33, 34, 35, 36, 37, 38, 39, 40, 41, 42, 43, 44, 45, 46, 47, 48, 49, 50, 51, 52, 53, 54, 55, 56, 57, 58, 59, 60, 61, 62, 63, 64, 65, 66, 67, 68, 69, 70, 71, 72, 73, 74, 75, 76, 77, 78, 79, 80, 81, 82, 83, 84, 85, 86, 87, 88, 89, 90, 91, 92, 93, 94, 95, 96, 97, 98, 99, 100, 101, 102, 103, 104, 105, 106, 107, 108, 109, 110, 111, 112, 113, 114, 115, 116, 117, 118, 119, 120, 121, 122, 123, 124, 125, 126, 127, 128, 129, 130, 131, 132, 133, 134, 135, 136, 137, 138, 139, 140, 141, 142, 143, 144, 145, 146, 147, 148, 149, 150, 151, 152, 153, 154, 155, 156, 157, 158, 159, 160, 161, 162, 163, 164, 165, 166, 167, 168, 169, 170, 171, 172, 173, 174, 175, 176, 177, 178, 179, 180, 181, 182, 183, 184, 185, 186, 187, 188, 189, 190, 191, 192, 193, 194, 195, 196, 197, 198, 199, 200, 201, 202, 203, 204, 205, 206, 207, 208, 209, 210, 211, 212, 213, 214, 215, 216, 217, 218, 219, 220, 221, 222, 223, 224, 225, 226, 227, 228, 229, 230, 231, 232, 233, 234, 235, 236, 237, 238, 239, 240, 241, 242, 243, 244, 245, 246, 247, 248, 249, 250, 251, 252, 253, 254, 255, 256, 257, 258, 259, 260, 261, 262, 263, 264, 265, 266, 267, 268, 269, 270, 271, 272, 273, 274, 275, 276, 277, 278, 279, 280, 281, 282, 283, 284, 285, 286, 287, 288, 289, 290, 291, 292, 293, 294, 295, 296, 297, 298, 299, 300, 301, 302, 303, 304, 305, 306, 307, 308, 309, 310, 311, 312, 313, 314, 315, 316, 317, 318, 319, 320, 321, 322, 323, 324, 325, 326, 327, 328, 329, 330, 331, 332, 333, 334, 335, 336, 337, 338, 339, 340, 341, 342, 343, 344, 345, 346, 347, 348, 349, 350, 351, 352, 353, 354, 355, 356, 357, 358, 359, 360, 361, 362, 363, 364, 365, 366, 367, 368, 369, 370, 371, 372, 373],
      "AcquisitionTime": ["145405.812500", "145407.092500", "145408.372500", "145409.652500", "145410.932500", "145412.212500", "145413.492500", "145414.772500", "145416.052500", "145417.332500", "145418.612500", "145419.892500", "145421.172500", "145422.452500", "145423.732500", "145425.012500", "145426.292500", "145427.572500", "145428.852500", "145430.132500", "145431.412500", "145432.692500", "145433.972500", "145435.252500", "145436.532500", "145437.812500", "145439.092500", "145440.372500", "145441.652500", "145442.932500", "145444.212500", "145445.492500", "145446.772500", "145448.052500", "145449.332500", "145450.612500", "145451.892500", "145453.172500", "145454.452500", "145455.732500", "145457.012500", "145458.292500", "145459.572500", "145500.852500", "145502.132500", "145503.412500", "145504.692500", "145505.972500", "145507.252500", "145508.532500", "145509.812500", "145511.092500", "145512.372500", "145513.652500", "145514.932500", "145516.212500", "145517.492500", "145518.772500", "145520.052500", "145521.332500", "145522.612500", "145523.892500", "145525.172500", "145526.452500", "145527.732500", "145529.012500", "145530.292500", "145531.572500", "145532.852500", "145534.132500", "145535.412500", "145536.692500", "145537.972500", "145539.252500", "145540.532500", "145541.812500", "145543.092500", "145544.372500", "145545.652500", "145546.932500", "145548.212500", "145549.492500", "145550.772500", "145552.052500", "145553.332500", "145554.612500", "145555.892500", "145557.172500", "145558.452500", "145559.732500", "145601.012500", "145602.292500", "145603.572500", "145604.852500", "145606.132500", "145607.412500", "145608.692500", "145609.972500", "145611.252500", "145612.532500", "145613.812500", "145615.092500", "145616.372500", "145617.652500", "145618.932500", "145620.212500", "145621.492500", "145622.772500", "145624.052500", "145625.332500", "145626.612500", "145627.892500", "145629.172500", "145630.452500", "145631.732500", "145633.012500", "145634.292500", "145635.572500", "145636.852500", "145638.132500", "145639.412500", "145640.692500", "145641.972500", "145643.252500", "145644.532500", "145645.812500", "145647.092500", "145648.372500", "145649.652500", "145650.932500", "145652.212500", "145653.492500", "145654.772500", "145656.052500", "145657.332500", "145658.612500", "145659.892500", "145701.172500", "145702.452500", "145703.732500", "145705.012500", "145706.292500", "145707.572500", "145708.852500", "145710.132500", "145711.412500", "145712.692500", "145713.972500", "145715.252500", "145716.532500", "145717.812500", "145719.092500", "145720.372500", "145721.652500", "145722.932500", "145724.212500", "145725.492500", "145726.772500", "145728.052500", "145729.332500", "145730.612500", "145731.892500", "145733.172500", "145734.452500", "145735.732500", "145737.012500", "145738.292500", "145739.572500", "145740.852500", "145742.132500", "145743.412500", "145744.692500", "145745.972500", "145747.252500", "145748.532500", "145749.812500", "145751.092500", "145752.372500", "145753.652500", "145754.932500", "145756.212500", "145757.492500", "145758.772500", "145800.052500", "145801.332500", "145802.612500", "145803.892500", "145805.172500", "145806.452500", "145807.732500", "145809.012500", "145810.292500", "145811.572500", "145812.852500", "145814.132500", "145815.412500", "145816.692500", "145817.972500", "145819.252500", "145820.532500", "145821.812500", "145823.092500", "145824.372500", "145825.652500", "145826.932500", "145828.212500", "145829.492500", "145830.772500", "145832.052500", "145833.332500", "145834.612500", "145835.892500", "145837.172500", "145838.452500", "145839.732500", "145841.012500", "145842.292500", "145843.572500", "145844.852500", "145846.132500", "145847.412500", "145848.692500", "145849.972500", "145851.252500", "145852.532500", "145853.812500", "145855.092500", "145856.372500", "145857.652500", "145858.932500", "145900.212500", "145901.492500", "145902.772500", "145904.052500", "145905.332500", "145906.612500", "145907.892500", "145909.172500", "145910.452500", "145911.732500", "145913.012500", "145914.292500", "145915.572500", "145916.852500", "145918.132500", "145919.412500", "145920.692500", "145921.972500", "145923.252500", "145924.532500", "145925.812500", "145927.092500", "145928.372500", "145929.652500", "145930.932500", "145932.212500", "145933.492500", "145934.772500", "145936.052500", "145937.332500", "145938.612500", "145939.892500", "145941.172500", "145942.452500", "145943.732500", "145945.012500", "145946.292500", "145947.572500", "145948.852500", "145950.132500", "145951.412500", "145952.692500", "145953.972500", "145955.252500", "145956.532500", "145957.812500", "145959.092500", "150000.372500", "150001.652500", "150002.932500", "150004.212500", "150005.492500", "150006.772500", "150008.052500", "150009.332500", "150010.612500", "150011.892500", "150013.172500", "150014.452500", "150015.732500", "150017.012500", "150018.292500", "150019.572500", "150020.852500", "150022.132500", "150023.412500", "150024.692500", "150025.972500", "150027.252500", "150028.532500", "150029.812500", "150031.092500", "150032.372500", "150033.652500", "150034.932500", "150036.212500", "150037.492500", "150038.772500", "150040.052500", "150041.332500", "150042.612500", "150043.892500", "150045.172500", "150046.452500", "150047.732500", "150049.012500", "150050.292500", "150051.572500", "150052.852500", "150054.132500", "150055.412500", "150056.692500", "150057.972500", "150059.252500", "150100.532500", "150101.812500", "150103.092500", "150104.372500", "150105.652500", "150106.932500", "150108.212500", "150109.492500", "150110.772500", "150112.052500", "150113.332500", "150114.612500", "150115.892500", "150117.172500", "150118.452500", "150119.732500", "150121.012500", "150122.292500", "150123.572500", "150124.852500", "150126.132500", "150127.412500", "150128.692500", "150129.972500", "150131.252500", "150132.532500", "150133.812500", "150135.092500", "150136.372500", "150137.652500", "150138.932500", "150140.212500", "150141.492500", "150142.772500", "150144.052500", "150145.332500", "150146.612500", "150147.892500", "150149.172500", "150150.452500", "150151.732500", "150153.012500", "150154.292500", "150155.572500", "150156.852500", "150158.132500", "150159.412500", "150200.692500", "150201.972500"],
      "ContentTime": ["145449.861000", "145449.864000", "145449.867000", "145449.870000", "145449.873000", "145449.876000", "145449.879000", "145449.882000", "145449.885000", "145449.888000", "145449.891000", "145449.893000", "145449.896000", "145449.900000", "145449.908000", "145449.911000", "145449.914000", "145449.917000", "145449.920000", "145449.923000", "145449.926000", "145449.929000", "145449.932000", "145449.935000", "145449.953000", "145449.956000", "145449.959000", "145449.962000", "145449.965000", "145449.968000", "145449.971000", "145449.974000", "145449.977000", "145449.980000", "145529.856000", "145529.859000", "145529.862000", "145529.865000", "145529.868000", "145529.871000", "145529.874000", "145529.877000", "145529.880000", "145529.883000", "145529.885000", "145529.888000", "145529.891000", "145529.894000", "145529.897000", "145529.900000", "145529.903000", "145529.906000", "145529.909000", "145529.912000", "145529.924000", "145529.927000", "145529.930000", "145529.933000", "145529.935000", "145529.939000", "145529.942000", "145529.945000", "145529.948000", "145529.951000", "145529.954000", "145609.855000", "145609.858000", "145609.861000", "145609.864000", "145609.867000", "145609.870000", "145609.873000", "145609.876000", "145609.879000", "145609.882000", "145609.885000", "145609.888000", "145609.891000", "145609.894000", "145609.901000", "145609.903000", "145609.906000", "145609.909000", "145609.912000", "145609.915000", "145609.918000", "145609.921000", "145609.924000", "145609.927000", "145609.930000", "145609.933000", "145609.936000", "145609.939000", "145609.942000", "145609.945000", "145609.948000", "145609.950000", "145649.856000", "145649.859000", "145649.862000", "145649.865000", "145649.868000", "145649.871000", "145649.874000", "145649.877000", "145649.880000", "145649.883000", "145649.886000", "145649.888000", "145649.891000", "145649.894000", "145649.897000", "145649.900000", "145649.903000", "145649.906000", "145649.909000", "145649.912000", "145649.915000", "145649.918000", "145649.921000", "145649.924000", "145649.927000", "145649.930000", "145649.933000", "145649.936000", "145649.939000", "145649.942000", "145649.944000", "145709.856000", "145709.859000", "145709.862000", "145709.865000", "145709.868000", "145709.871000", "145709.874000", "145709.877000", "145709.880000", "145709.883000", "145709.886000", "145709.888000", "145709.891000", "145709.894000", "145709.897000", "145749.856000", "145749.859000", "145749.862000", "145749.865000", "145749.868000", "145749.871000", "145749.874000", "145749.877000", "145749.880000", "145749.883000", "145749.886000", "145749.889000", "145749.892000", "145749.895000", "145749.897000", "145749.900000", "145749.903000", "145749.906000", "145749.909000", "145749.912000", "145749.915000", "145749.918000", "145749.921000", "145749.924000", "145749.927000", "145749.930000", "145749.933000", "145749.936000", "145749.939000", "145749.942000", "145749.945000", "145749.948000", "145829.855000", "145829.858000", "145829.861000", "145829.864000", "145829.867000", "145829.870000", "145829.873000", "145829.876000", "145829.879000", "145829.882000", "145829.885000", "145829.888000", "145829.891000", "145829.894000", "145829.897000", "145829.900000", "145829.903000", "145829.906000", "145829.909000", "145829.912000", "145829.915000", "145829.918000", "145829.921000", "145829.924000", "145829.927000", "145829.929000", "145829.932000", "145829.935000", "145829.938000", "145829.941000", "145829.944000", "145909.856000", "145909.859000", "145909.862000", "145909.865000", "145909.868000", "145909.871000", "145909.874000", "145909.877000", "145909.880000", "145909.883000", "145909.886000", "145909.889000", "145909.892000", "145909.895000", "145909.898000", "145909.901000", "145909.904000", "145909.907000", "145909.927000", "145909.930000", "145909.933000", "145909.936000", "145909.939000", "145909.942000", "145909.945000", "145909.948000", "145909.951000", "145909.954000", "145909.957000", "145909.959000", "145909.963000", "145949.856000", "145949.859000", "145949.862000", "145949.865000", "145949.868000", "145949.871000", "145949.874000", "145949.877000", "145949.880000", "145949.883000", "145949.886000", "145949.889000", "145949.892000", "145949.902000", "145949.905000", "145949.908000", "145949.911000", "145949.914000", "145949.917000", "145949.920000", "145949.922000", "145949.926000", "145949.928000", "145949.931000", "145949.934000", "145949.937000", "145949.940000", "145949.943000", "145949.946000", "145949.950000", "145949.953000", "150029.855000", "150029.858000", "150029.861000", "150029.864000", "150029.867000", "150029.870000", "150029.873000", "150029.876000", "150029.879000", "150029.882000", "150029.885000", "150029.888000", "150029.891000", "150029.894000", "150029.897000", "150029.900000", "150029.903000", "150029.906000", "150029.909000", "150029.912000", "150029.915000", "150029.918000", "150029.921000", "150029.924000", "150029.927000", "150029.929000", "150029.933000", "150029.935000", "150029.938000", "150029.941000", "150029.944000", "150029.947000", "150109.856000", "150109.859000", "150109.862000", "150109.865000", "150109.868000", "150109.871000", "150109.874000", "150109.877000", "150109.881000", "150109.884000", "150109.886000", "150109.889000", "150109.892000", "150109.895000", "150109.898000", "150109.901000", "150109.904000", "150109.907000", "150109.910000", "150109.913000", "150109.916000", "150109.919000", "150109.922000", "150109.925000", "150109.928000", "150109.931000", "150109.933000", "150109.936000", "150109.940000", "150109.943000", "150109.945000", "150149.856000", "150149.859000", "150149.862000", "150149.865000", "150149.868000", "150149.871000", "150149.874000", "150149.877000", "150149.887000", "150149.890000", "150149.893000", "150149.896000", "150149.899000", "150149.902000", "150149.905000", "150149.908000", "150149.911000", "150149.914000", "150149.917000", "150149.920000", "150149.923000", "150149.926000", "150149.929000", "150149.932000", "150149.935000", "150149.938000", "150149.941000", "150149.944000", "150149.947000", "150149.950000", "150149.953000", "150203.124000", "150203.129000", "150203.136000", "150203.140000", "150203.144000", "150203.147000", "150203.150000", "150203.153000", "150203.156000", "150203.159000", "150203.162000"],
      "InstanceCreationTime": ["145449.861000", "145449.864000", "145449.867000", "145449.870000", "145449.873000", "145449.876000", "145449.879000", "145449.882000", "145449.885000", "145449.888000", "145449.891000", "145449.893000", "145449.896000", "145449.900000", "145449.908000", "145449.911000", "145449.914000", "145449.917000", "145449.920000", "145449.923000", "145449.926000", "145449.929000", "145449.932000", "145449.935000", "145449.953000", "145449.956000", "145449.959000", "145449.962000", "145449.965000", "145449.968000", "145449.971000", "145449.974000", "145449.977000", "145449.980000", "145529.856000", "145529.859000", "145529.862000", "145529.865000", "145529.868000", "145529.871000", "145529.874000", "145529.877000", "145529.880000", "145529.883000", "145529.885000", "145529.888000", "145529.891000", "145529.894000", "145529.897000", "145529.900000", "145529.903000", "145529.906000", "145529.909000", "145529.912000", "145529.924000", "145529.927000", "145529.930000", "145529.933000", "145529.935000", "145529.939000", "145529.942000", "145529.945000", "145529.948000", "145529.951000", "145529.954000", "145609.855000", "145609.858000", "145609.861000", "145609.864000", "145609.867000", "145609.870000", "145609.873000", "145609.876000", "145609.879000", "145609.882000", "145609.885000", "145609.888000", "145609.891000", "145609.894000", "145609.901000", "145609.903000", "145609.906000", "145609.909000", "145609.912000", "145609.915000", "145609.918000", "145609.921000", "145609.924000", "145609.927000", "145609.930000", "145609.933000", "145609.936000", "145609.939000", "145609.942000", "145609.945000", "145609.948000", "145609.950000", "145649.856000", "145649.859000", "145649.862000", "145649.865000", "145649.868000", "145649.871000", "145649.874000", "145649.877000", "145649.880000", "145649.883000", "145649.886000", "145649.888000", "145649.891000", "145649.894000", "145649.897000", "145649.900000", "145649.903000", "145649.906000", "145649.909000", "145649.912000", "145649.915000", "145649.918000", "145649.921000", "145649.924000", "145649.927000", "145649.930000", "145649.933000", "145649.936000", "145649.939000", "145649.942000", "145649.944000", "145709.856000", "145709.859000", "145709.862000", "145709.865000", "145709.868000", "145709.871000", "145709.874000", "145709.877000", "145709.880000", "145709.883000", "145709.886000", "145709.888000", "145709.891000", "145709.894000", "145709.897000", "145749.856000", "145749.859000", "145749.862000", "145749.865000", "145749.868000", "145749.871000", "145749.874000", "145749.877000", "145749.880000", "145749.883000", "145749.886000", "145749.889000", "145749.892000", "145749.895000", "145749.897000", "145749.900000", "145749.903000", "145749.906000", "145749.909000", "145749.912000", "145749.915000", "145749.918000", "145749.921000", "145749.924000", "145749.927000", "145749.930000", "145749.933000", "145749.936000", "145749.939000", "145749.942000", "145749.945000", "145749.948000", "145829.855000", "145829.858000", "145829.861000", "145829.864000", "145829.867000", "145829.870000", "145829.873000", "145829.876000", "145829.879000", "145829.882000", "145829.885000", "145829.888000", "145829.891000", "145829.894000", "145829.897000", "145829.900000", "145829.903000", "145829.906000", "145829.909000", "145829.912000", "145829.915000", "145829.918000", "145829.921000", "145829.924000", "145829.927000", "145829.929000", "145829.932000", "145829.935000", "145829.938000", "145829.941000", "145829.944000", "145909.856000", "145909.859000", "145909.862000", "145909.865000", "145909.868000", "145909.871000", "145909.874000", "145909.877000", "145909.880000", "145909.883000", "145909.886000", "145909.889000", "145909.892000", "145909.895000", "145909.898000", "145909.901000", "145909.904000", "145909.907000", "145909.927000", "145909.930000", "145909.933000", "145909.936000", "145909.939000", "145909.942000", "145909.945000", "145909.948000", "145909.951000", "145909.954000", "145909.957000", "145909.959000", "145909.963000", "145949.856000", "145949.859000", "145949.862000", "145949.865000", "145949.868000", "145949.871000", "145949.874000", "145949.877000", "145949.880000", "145949.883000", "145949.886000", "145949.889000", "145949.892000", "145949.902000", "145949.905000", "145949.908000", "145949.911000", "145949.914000", "145949.917000", "145949.920000", "145949.922000", "145949.926000", "145949.928000", "145949.931000", "145949.934000", "145949.937000", "145949.940000", "145949.943000", "145949.946000", "145949.950000", "145949.953000", "150029.855000", "150029.858000", "150029.861000", "150029.864000", "150029.867000", "150029.870000", "150029.873000", "150029.876000", "150029.879000", "150029.882000", "150029.885000", "150029.888000", "150029.891000", "150029.894000", "150029.897000", "150029.900000", "150029.903000", "150029.906000", "150029.909000", "150029.912000", "150029.915000", "150029.918000", "150029.921000", "150029.924000", "150029.927000", "150029.929000", "150029.933000", "150029.935000", "150029.938000", "150029.941000", "150029.944000", "150029.947000", "150109.856000", "150109.859000", "150109.862000", "150109.865000", "150109.868000", "150109.871000", "150109.874000", "150109.877000", "150109.881000", "150109.884000", "150109.886000", "150109.889000", "150109.892000", "150109.895000", "150109.898000", "150109.901000", "150109.904000", "150109.907000", "150109.910000", "150109.913000", "150109.916000", "150109.919000", "150109.922000", "150109.925000", "150109.928000", "150109.931000", "150109.933000", "150109.936000", "150109.940000", "150109.943000", "150109.945000", "150149.856000", "150149.859000", "150149.862000", "150149.865000", "150149.868000", "150149.871000", "150149.874000", "150149.877000", "150149.887000", "150149.890000", "150149.893000", "150149.896000", "150149.899000", "150149.902000", "150149.905000", "150149.908000", "150149.911000", "150149.914000", "150149.917000", "150149.920000", "150149.923000", "150149.926000", "150149.929000", "150149.932000", "150149.935000", "150149.938000", "150149.941000", "150149.944000", "150149.947000", "150149.950000", "150149.953000", "150203.124000", "150203.129000", "150203.136000", "150203.140000", "150203.144000", "150203.147000", "150203.150000", "150203.153000", "150203.156000", "150203.159000", "150203.162000"],
      "InstanceNumber": [1, 2, 3, 4, 5, 6, 7, 8, 9, 10, 11, 12, 13, 14, 15, 16, 17, 18, 19, 20, 21, 22, 23, 24, 25, 26, 27, 28, 29, 30, 31, 32, 33, 34, 35, 36, 37, 38, 39, 40, 41, 42, 43, 44, 45, 46, 47, 48, 49, 50, 51, 52, 53, 54, 55, 56, 57, 58, 59, 60, 61, 62, 63, 64, 65, 66, 67, 68, 69, 70, 71, 72, 73, 74, 75, 76, 77, 78, 79, 80, 81, 82, 83, 84, 85, 86, 87, 88, 89, 90, 91, 92, 93, 94, 95, 96, 97, 98, 99, 100, 101, 102, 103, 104, 105, 106, 107, 108, 109, 110, 111, 112, 113, 114, 115, 116, 117, 118, 119, 120, 121, 122, 123, 124, 125, 126, 127, 128, 129, 130, 131, 132, 133, 134, 135, 136, 137, 138, 139, 140, 141, 142, 143, 144, 145, 146, 147, 148, 149, 150, 151, 152, 153, 154, 155, 156, 157, 158, 159, 160, 161, 162, 163, 164, 165, 166, 167, 168, 169, 170, 171, 172, 173, 174, 175, 176, 177, 178, 179, 180, 181, 182, 183, 184, 185, 186, 187, 188, 189, 190, 191, 192, 193, 194, 195, 196, 197, 198, 199, 200, 201, 202, 203, 204, 205, 206, 207, 208, 209, 210, 211, 212, 213, 214, 215, 216, 217, 218, 219, 220, 221, 222, 223, 224, 225, 226, 227, 228, 229, 230, 231, 232, 233, 234, 235, 236, 237, 238, 239, 240, 241, 242, 243, 244, 245, 246, 247, 248, 249, 250, 251, 252, 253, 254, 255, 256, 257, 258, 259, 260, 261, 262, 263, 264, 265, 266, 267, 268, 269, 270, 271, 272, 273, 274, 275, 276, 277, 278, 279, 280, 281, 282, 283, 284, 285, 286, 287, 288, 289, 290, 291, 292, 293, 294, 295, 296, 297, 298, 299, 300, 301, 302, 303, 304, 305, 306, 307, 308, 309, 310, 311, 312, 313, 314, 315, 316, 317, 318, 319, 320, 321, 322, 323, 324, 325, 326, 327, 328, 329, 330, 331, 332, 333, 334, 335, 336, 337, 338, 339, 340, 341, 342, 343, 344, 345, 346, 347, 348, 349, 350, 351, 352, 353, 354, 355, 356, 357, 358, 359, 360, 361, 362, 363, 364, 365, 366, 367, 368, 369, 370, 371, 372, 373],
