{
  "AcquisitionMatrixPE": 108,
  "AcquisitionNumber": 1,
  "AcquisitionTime": "15:04:29.150000",
  "BandwidthPerPixelPhaseEncode": 15.964,
  "BaseResolution": 108,
  "BodyPartExamined": "BRAIN",
  "ConsistencyInfo": "N4_VE11C_LATEST_20160120",
  "ConversionSoftware": "dcm2niix",
  "ConversionSoftwareVersion": "v1.0.20180622 GCC6.3.0",
  "DerivedVendorReportedEchoSpacing": 0.000580009,
  "DeviceSerialNumber": "66054",
  "DwellTime": 2.1e-06,
  "EchoTime": 0.031,
  "EchoTrainLength": 95,
  "EffectiveEchoSpacing": 0.000580009,
  "FlipAngle": 64,
  "ImageOrientationPatientDICOM": [0.995096, -0.0959071, -0.0242171, 0.0853098, 0.956009, -0.280657],
  "ImageType": [
    "ORIGINAL",
    "PRIMARY",
    "M",
    "ND",
    "MOSAIC"
],
  "InPlanePhaseEncodingDirectionDICOM": "COL",
  "InstitutionAddress": "Chemin_des_Mines_9_Geneve_District_CH_1211",
  "InstitutionName": "Fondation_Campus_Biotech_Geneva",
  "InstitutionalDepartmentName": "Department",
  "MRAcquisitionType": "2D",
  "MagneticFieldStrength": 3,
  "Manufacturer": "Siemens",
  "ManufacturersModelName": "Prisma",
  "Modality": "MR",
  "MultibandAccelerationFactor": 4,
  "PartialFourier": 0.875,
  "PatientPosition": "HFS",
  "PercentPhaseFOV": 100,
  "PhaseEncodingDirection": "j-",
  "PhaseEncodingSteps": 95,
  "PhaseResolution": 1,
  "PixelBandwidth": 2205,
  "ProcedureStepDescription": "J.DRM_Michael",
  "ProtocolName": "Run2_bold_s4_TR1.28",
  "PulseSequenceDetails": "%SiemensSeq%_ep2d_bold",
  "ReceiveCoilActiveElements": "HC1-7;NC1,2",
  "ReceiveCoilName": "HeadNeck_64",
  "ReconMatrixPE": 108,
  "RepetitionTime": 1.28,
  "SAR": 0.0700036,
  "ScanOptions": "PFP_FS",
  "ScanningSequence": "EP",
  "SequenceName": "_epfid2d1_108",
  "SequenceVariant": "SK",
  "SeriesDescription": "Run2_bold_s4_TR1.28",
  "SeriesNumber": 6,
  "ShimSetting": [-1247, -11662, 6430, 611, 173, 91, 52, 21],
  "SliceThickness": 2,
  "SliceTiming": [0.945, 0, 0.63, 0.08, 0.71, 0.1575, 0.7875, 0.2375, 0.8675, 0.395, 1.025, 0.4725, 1.1025, 0.5525, 1.1825, 0.315, 0.945, 0, 0.63, 0.08, 0.71, 0.1575, 0.7875, 0.2375, 0.8675, 0.395, 1.025, 0.4725, 1.1025, 0.5525, 1.1825, 0.315, 0.945, 0, 0.63, 0.08, 0.71, 0.1575, 0.7875, 0.2375, 0.8675, 0.395, 1.025, 0.4725, 1.1025, 0.5525, 1.1825, 0.315, 0.945, 0, 0.63, 0.08, 0.71, 0.1575, 0.7875, 0.2375, 0.8675, 0.395, 1.025, 0.4725, 1.1025, 0.5525, 1.1825, 0.315],
  "SoftwareVersions": "syngo_MR_E11",
  "SpacingBetweenSlices": 2,
  "StationName": "AWP66054",
  "TaskName": "main",
  "TotalReadoutTime": 0.0620609,
  "TxRefAmp": 260.639,
  "dcmmeta_affine": [
    [-1.9809775352478027, 0.16982965171337128, -0.1001376062631607, 98.7686996459961],
    [0.1909262090921402, 1.903166651725769, -0.554429829120636, -91.8202133178711],
    [-0.048209961503744125, 0.5587159395217896, 1.919005036354065, -82.48870086669922],
    [0.0, 0.0, 0.0, 1.0]
],
  "dcmmeta_reorient_transform": [
    [0.0, -1.0, 0.0, 107.0],
    [1.0, 0.0, 0.0, 0.0],
    [0.0, 0.0, 1.0, 0.0],
    [0.0, 0.0, 0.0, 1.0]
],
  "dcmmeta_shape": [108, 108, 64, 373],
  "dcmmeta_slice_dim": 2,
  "dcmmeta_version": 0.6,
  "global": {
    "const": {
      "AccessionNumber": "",
      "AcquisitionMatrix": [108, 0, 0, 108],
      "AngioFlag": "N",
      "BitsAllocated": 16,
      "BitsStored": 12,
      "BodyPartExamined": "BRAIN",
      "Columns": 864,
      "EchoNumbers": 1,
      "EchoTime": 31.0,
      "EchoTrainLength": 95,
      "FlipAngle": 64.0,
      "HighBit": 11,
      "ImageOrientationPatient": [0.99509565211105, -0.0959071187416, -0.0242170957044, 0.08530977856609, 0.95600926851978, -0.2806573002529],
      "ImagePositionPatient": [-929.9455756367, -759.04549361666, 206.71189026566],
      "ImageType": [
        "ORIGINAL",
        "PRIMARY",
        "M",
        "ND",
        "MOSAIC"
],
      "ImagedNucleus": "1H",
      "ImagingFrequency": 123.257434,
      "InPlanePhaseEncodingDirection": "COL",
      "MRAcquisitionType": "2D",
      "MagneticFieldStrength": 3.0,
      "Manufacturer": "SIEMENS",
      "ManufacturerModelName": "Prisma",
      "Modality": "MR",
      "NumberOfAverages": 1.0,
      "NumberOfPhaseEncodingSteps": 95,
      "PercentPhaseFieldOfView": 100.0,
      "PercentSampling": 100.0,
      "PerformedProcedureStepStartTime": "142751.376000",
      "PhotometricInterpretation": "MONOCHROME2",
      "PixelBandwidth": 2205.0,
      "PixelRepresentation": 0,
      "PixelSpacing": [1.990740776062, 1.990740776062],
      "PositionReferenceIndicator": "",
      "ProtocolName": "Run2_bold_s4_TR1.28",
      "RepetitionTime": 1280.0,
      "Rows": 864,
      "SAR": 0.07000356230149,
      "SamplesPerPixel": 1,
      "ScanOptions": [
        "PFP",
        "FS"
],
      "ScanningSequence": "EP",
      "SequenceName": "*epfid2d1_108",
      "SequenceVariant": "SK",
      "SeriesDescription": "Run2_bold_s4_TR1.28",
      "SeriesNumber": 6,
      "SeriesTime": "150509.927000",
      "SliceLocation": -58.639412018848,
      "SliceThickness": 2.0,
      "SmallestImagePixelValue": 0,
      "SoftwareVersions": "syngo MR E11",
      "SpacingBetweenSlices": 2.0000000508259,
      "SpecificCharacterSet": "ISO_IR 100",
      "StudyID": "1",
      "StudyTime": "142751.272000",
      "TransmitCoilName": "Body",
      "VariableFlipAngleFlag": "N",
      "WindowCenterWidthExplanation": "Algo1",
      "dBdt": 0.0},
    "slices": {}
  },
  "time": {
    "samples": {
      "AcquisitionNumber": [1, 2, 3, 4, 5, 6, 7, 8, 9, 10, 11, 12, 13, 14, 15, 16, 17, 18, 19, 20, 21, 22, 23, 24, 25, 26, 27, 28, 29, 30, 31, 32, 33, 34, 35, 36, 37, 38, 39, 40, 41, 42, 43, 44, 45, 46, 47, 48, 49, 50, 51, 52, 53, 54, 55, 56, 57, 58, 59, 60, 61, 62, 63, 64, 65, 66, 67, 68, 69, 70, 71, 72, 73, 74, 75, 76, 77, 78, 79, 80, 81, 82, 83, 84, 85, 86, 87, 88, 89, 90, 91, 92, 93, 94, 95, 96, 97, 98, 99, 100, 101, 102, 103, 104, 105, 106, 107, 108, 109, 110, 111, 112, 113, 114, 115, 116, 117, 118, 119, 120, 121, 122, 123, 124, 125, 126, 127, 128, 129, 130, 131, 132, 133, 134, 135, 136, 137, 138, 139, 140, 141, 142, 143, 144, 145, 146, 147, 148, 149, 150, 151, 152, 153, 154, 155, 156, 157, 158, 159, 160, 161, 162, 163, 164, 165, 166, 167, 168, 169, 170, 171, 172, 173, 174, 175, 176, 177, 178, 179, 180, 181, 182, 183, 184, 185, 186, 187, 188, 189, 190, 191, 192, 193, 194, 195, 196, 197, 198, 199, 200, 201, 202, 203, 204, 205, 206, 207, 208, 209, 210, 211, 212, 213, 214, 215, 216, 217, 218, 219, 220, 221, 222, 223, 224, 225, 226, 227, 228, 229, 230, 231, 232, 233, 234, 235, 236, 237, 238, 239, 240, 241, 242, 243, 244, 245, 246, 247, 248, 249, 250, 251, 252, 253, 254, 255, 256, 257, 258, 259, 260, 261, 262, 263, 264, 265, 266, 267, 268, 269, 270, 271, 272, 273, 274, 275, 276, 277, 278, 279, 280, 281, 282, 283, 284, 285, 286, 287, 288, 289, 290, 291, 292, 293, 294, 295, 296, 297, 298, 299, 300, 301, 302, 303, 304, 305, 306, 307, 308, 309, 310, 311, 312, 313, 314, 315, 316, 317, 318, 319, 320, 321, 322, 323, 324, 325, 326, 327, 328, 329, 330, 331, 332, 333, 334, 335, 336, 337, 338, 339, 340, 341, 342, 343, 344, 345, 346, 347, 348, 349, 350, 351, 352, 353, 354, 355, 356, 357, 358, 359, 360, 361, 362, 363, 364, 365, 366, 367, 368, 369, 370, 371, 372, 373],
      "AcquisitionTime": ["150429.150000", "150430.430000", "150431.710000", "150432.990000", "150434.270000", "150435.550000", "150436.830000", "150438.110000", "150439.390000", "150440.670000", "150441.950000", "150443.230000", "150444.510000", "150445.790000", "150447.070000", "150448.350000", "150449.630000", "150450.910000", "150452.190000", "150453.470000", "150454.750000", "150456.030000", "150457.310000", "150458.590000", "150459.870000", "150501.150000", "150502.430000", "150503.710000", "150504.990000", "150506.270000", "150507.550000", "150508.830000", "150510.110000", "150511.390000", "150512.670000", "150513.950000", "150515.230000", "150516.510000", "150517.790000", "150519.070000", "150520.350000", "150521.630000", "150522.910000", "150524.190000", "150525.470000", "150526.750000", "150528.030000", "150529.310000", "150530.590000", "150531.870000", "150533.150000", "150534.430000", "150535.710000", "150536.990000", "150538.270000", "150539.550000", "150540.830000", "150542.110000", "150543.390000", "150544.670000", "150545.950000", "150547.230000", "150548.510000", "150549.790000", "150551.070000", "150552.350000", "150553.630000", "150554.910000", "150556.190000", "150557.470000", "150558.750000", "150600.030000", "150601.310000", "150602.590000", "150603.870000", "150605.150000", "150606.430000", "150607.710000", "150608.990000", "150610.270000", "150611.550000", "150612.830000", "150614.110000", "150615.390000", "150616.670000", "150617.950000", "150619.230000", "150620.510000", "150621.790000", "150623.070000", "150624.350000", "150625.630000", "150626.910000", "150628.190000", "150629.470000", "150630.750000", "150632.030000", "150633.310000", "150634.590000", "150635.870000", "150637.150000", "150638.430000", "150639.710000", "150640.990000", "150642.270000", "150643.550000", "150644.830000", "150646.110000", "150647.390000", "150648.670000", "150649.950000", "150651.230000", "150652.510000", "150653.790000", "150655.070000", "150656.350000", "150657.630000", "150658.910000", "150700.190000", "150701.470000", "150702.750000", "150704.030000", "150705.310000", "150706.590000", "150707.870000", "150709.150000", "150710.430000", "150711.710000", "150712.990000", "150714.270000", "150715.550000", "150716.830000", "150718.110000", "150719.390000", "150720.670000", "150721.950000", "150723.230000", "150724.510000", "150725.790000", "150727.070000", "150728.350000", "150729.630000", "150730.910000", "150732.190000", "150733.470000", "150734.750000", "150736.030000", "150737.310000", "150738.590000", "150739.870000", "150741.150000", "150742.430000", "150743.710000", "150744.990000", "150746.270000", "150747.550000", "150748.830000", "150750.110000", "150751.390000", "150752.670000", "150753.950000", "150755.230000", "150756.510000", "150757.790000", "150759.070000", "150800.350000", "150801.630000", "150802.910000", "150804.190000", "150805.470000", "150806.750000", "150808.030000", "150809.310000", "150810.590000", "150811.870000", "150813.150000", "150814.430000", "150815.710000", "150816.990000", "150818.270000", "150819.550000", "150820.830000", "150822.110000", "150823.390000", "150824.670000", "150825.950000", "150827.230000", "150828.510000", "150829.790000", "150831.070000", "150832.350000", "150833.630000", "150834.910000", "150836.190000", "150837.470000", "150838.750000", "150840.030000", "150841.310000", "150842.590000", "150843.870000", "150845.150000", "150846.430000", "150847.710000", "150848.990000", "150850.270000", "150851.550000", "150852.830000", "150854.110000", "150855.390000", "150856.670000", "150857.950000", "150859.230000", "150900.510000", "150901.790000", "150903.070000", "150904.350000", "150905.630000", "150906.910000", "150908.190000", "150909.470000", "150910.750000", "150912.030000", "150913.310000", "150914.590000", "150915.870000", "150917.150000", "150918.430000", "150919.710000", "150920.990000", "150922.270000", "150923.550000", "150924.830000", "150926.110000", "150927.390000", "150928.670000", "150929.950000", "150931.230000", "150932.510000", "150933.790000", "150935.070000", "150936.350000", "150937.630000", "150938.910000", "150940.190000", "150941.470000", "150942.750000", "150944.030000", "150945.310000", "150946.590000", "150947.870000", "150949.150000", "150950.430000", "150951.710000", "150952.990000", "150954.270000", "150955.550000", "150956.830000", "150958.110000", "150959.390000", "151000.670000", "151001.950000", "151003.230000", "151004.510000", "151005.790000", "151007.070000", "151008.350000", "151009.630000", "151010.910000", "151012.190000", "151013.470000", "151014.750000", "151016.030000", "151017.310000", "151018.590000", "151019.870000", "151021.150000", "151022.430000", "151023.710000", "151024.990000", "151026.270000", "151027.550000", "151028.830000", "151030.110000", "151031.390000", "151032.670000", "151033.950000", "151035.230000", "151036.510000", "151037.790000", "151039.070000", "151040.350000", "151041.630000", "151042.910000", "151044.190000", "151045.470000", "151046.750000", "151048.030000", "151049.310000", "151050.590000", "151051.870000", "151053.150000", "151054.430000", "151055.710000", "151056.990000", "151058.270000", "151059.550000", "151100.830000", "151102.110000", "151103.390000", "151104.670000", "151105.950000", "151107.230000", "151108.510000", "151109.790000", "151111.070000", "151112.350000", "151113.630000", "151114.910000", "151116.190000", "151117.470000", "151118.750000", "151120.030000", "151121.310000", "151122.590000", "151123.870000", "151125.150000", "151126.430000", "151127.710000", "151128.990000", "151130.270000", "151131.550000", "151132.830000", "151134.110000", "151135.390000", "151136.670000", "151137.950000", "151139.230000", "151140.510000", "151141.790000", "151143.070000", "151144.350000", "151145.630000", "151146.910000", "151148.190000", "151149.470000", "151150.750000", "151152.030000", "151153.310000", "151154.590000", "151155.870000", "151157.150000", "151158.430000", "151159.710000", "151200.990000", "151202.270000", "151203.550000", "151204.830000", "151206.110000", "151207.390000", "151208.670000", "151209.950000", "151211.230000", "151212.510000", "151213.790000", "151215.070000", "151216.350000", "151217.630000", "151218.910000", "151220.190000", "151221.470000", "151222.750000", "151224.030000", "151225.310000"],
      "ContentTime": ["150509.931000", "150509.940000", "150509.943000", "150509.946000", "150509.949000", "150509.951000", "150509.954000", "150509.957000", "150509.960000", "150509.963000", "150509.966000", "150509.969000", "150509.972000", "150509.975000", "150509.978000", "150509.981000", "150509.984000", "150509.986000", "150509.990000", "150509.992000", "150509.995000", "150509.998000", "150510.002000", "150510.005000", "150510.008000", "150510.011000", "150510.014000", "150510.017000", "150510.020000", "150510.032000", "150510.035000", "150549.927000", "150549.930000", "150549.933000", "150549.936000", "150549.939000", "150549.942000", "150549.945000", "150549.948000", "150549.951000", "150549.954000", "150549.957000", "150549.960000", "150549.963000", "150549.966000", "150549.969000", "150549.972000", "150549.975000", "150549.978000", "150549.981000", "150549.983000", "150549.986000", "150549.997000", "150550.000000", "150550.003000", "150550.006000", "150550.009000", "150550.012000", "150550.015000", "150550.018000", "150550.021000", "150550.024000", "150550.027000", "150629.927000", "150629.930000", "150629.933000", "150629.936000", "150629.939000", "150629.942000", "150629.945000", "150629.948000", "150629.951000", "150629.954000", "150629.956000", "150629.959000", "150629.962000", "150629.965000", "150629.968000", "150629.971000", "150629.974000", "150629.977000", "150629.980000", "150629.983000", "150629.986000", "150629.989000", "150629.991000", "150629.995000", "150629.998000", "150630.002000", "150630.005000", "150630.008000", "150630.011000", "150630.014000", "150630.017000", "150709.926000", "150709.929000", "150709.932000", "150709.935000", "150709.938000", "150709.941000", "150709.944000", "150709.947000", "150709.950000", "150709.953000", "150709.956000", "150709.959000", "150709.962000", "150709.965000", "150709.968000", "150709.971000", "150709.982000", "150709.985000", "150709.988000", "150709.991000", "150709.994000", "150709.997000", "150710.000000", "150710.004000", "150710.006000", "150710.009000", "150710.012000", "150710.015000", "150710.018000", "150710.021000", "150710.024000", "150749.926000", "150749.929000", "150749.932000", "150749.935000", "150749.938000", "150749.941000", "150749.944000", "150749.947000", "150749.949000", "150749.952000", "150749.955000", "150749.958000", "150749.961000", "150749.964000", "150749.967000", "150749.970000", "150749.973000", "150749.976000", "150749.979000", "150749.982000", "150749.985000", "150749.987000", "150749.990000", "150749.993000", "150749.996000", "150750.000000", "150750.003000", "150750.006000", "150750.023000", "150750.026000", "150750.029000", "150829.927000", "150829.930000", "150829.933000", "150829.936000", "150829.939000", "150829.942000", "150829.945000", "150829.948000", "150829.951000", "150829.954000", "150829.957000", "150829.960000", "150829.963000", "150829.966000", "150829.968000", "150829.971000", "150829.974000", "150829.977000", "150829.980000", "150829.983000", "150829.986000", "150829.989000", "150829.992000", "150829.995000", "150829.998000", "150830.002000", "150830.004000", "150830.008000", "150830.010000", "150830.013000", "150830.016000", "150830.019000", "150909.927000", "150909.930000", "150909.933000", "150909.936000", "150909.939000", "150909.942000", "150909.945000", "150909.948000", "150909.951000", "150909.953000", "150909.956000", "150909.959000", "150909.962000", "150909.965000", "150909.968000", "150909.971000", "150909.974000", "150909.977000", "150909.979000", "150909.982000", "150909.985000", "150909.988000", "150909.991000", "150909.994000", "150909.997000", "150910.001000", "150910.004000", "150910.007000", "150910.010000", "150910.013000", "150910.016000", "150949.926000", "150949.929000", "150949.932000", "150949.935000", "150949.938000", "150949.941000", "150949.944000", "150949.947000", "150949.950000", "150949.953000", "150949.956000", "150949.959000", "150949.962000", "150949.965000", "150949.968000", "150949.971000", "150949.974000", "150949.977000", "150949.979000", "150949.982000", "150949.985000", "150949.988000", "150949.991000", "150949.994000", "150949.997000", "150950.001000", "150950.004000", "150950.007000", "150950.010000", "150950.013000", "150950.016000", "151029.927000", "151029.930000", "151029.933000", "151029.936000", "151029.939000", "151029.942000", "151029.945000", "151029.948000", "151029.951000", "151029.954000", "151029.957000", "151029.960000", "151029.963000", "151029.966000", "151029.969000", "151029.972000", "151029.975000", "151029.978000", "151029.981000", "151029.984000", "151029.986000", "151029.989000", "151029.992000", "151029.995000", "151029.998000", "151030.001000", "151030.004000", "151030.007000", "151030.010000", "151030.013000", "151030.016000", "151109.927000", "151109.930000", "151109.933000", "151109.936000", "151109.939000", "151109.942000", "151109.945000", "151109.948000", "151109.951000", "151109.954000", "151109.957000", "151109.960000", "151109.963000", "151109.966000", "151109.969000", "151109.972000", "151109.974000", "151109.977000", "151109.980000", "151109.983000", "151109.986000", "151109.989000", "151109.992000", "151109.995000", "151109.998000", "151110.002000", "151110.005000", "151110.008000", "151110.011000", "151110.014000", "151110.017000", "151110.020000", "151149.926000", "151149.929000", "151149.932000", "151149.935000", "151149.938000", "151149.941000", "151149.944000", "151149.947000", "151149.950000", "151149.953000", "151149.956000", "151149.959000", "151149.962000", "151149.965000", "151149.968000", "151149.971000", "151149.973000", "151149.977000", "151149.979000", "151149.995000", "151149.998000", "151150.003000", "151150.005000", "151150.008000", "151150.011000", "151150.014000", "151150.017000", "151150.020000", "151150.023000", "151150.026000", "151150.029000", "151226.584000", "151226.588000", "151226.591000", "151226.594000", "151226.597000", "151226.600000", "151226.603000", "151226.606000", "151226.610000", "151226.613000", "151226.616000", "151226.620000", "151226.624000", "151226.628000", "151226.632000", "151226.637000", "151226.644000", "151226.648000", "151226.651000", "151226.654000", "151226.658000", "151226.661000", "151226.664000", "151226.668000", "151226.671000", "151226.675000", "151226.678000", "151226.681000", "151226.685000"],
      "InstanceCreationTime": ["150509.931000", "150509.940000", "150509.943000", "150509.946000", "150509.949000", "150509.951000", "150509.954000", "150509.957000", "150509.960000", "150509.963000", "150509.966000", "150509.969000", "150509.972000", "150509.975000", "150509.978000", "150509.981000", "150509.984000", "150509.986000", "150509.990000", "150509.992000", "150509.995000", "150509.998000", "150510.002000", "150510.005000", "150510.008000", "150510.011000", "150510.014000", "150510.017000", "150510.020000", "150510.032000", "150510.035000", "150549.927000", "150549.930000", "150549.933000", "150549.936000", "150549.939000", "150549.942000", "150549.945000", "150549.948000", "150549.951000", "150549.954000", "150549.957000", "150549.960000", "150549.963000", "150549.966000", "150549.969000", "150549.972000", "150549.975000", "150549.978000", "150549.981000", "150549.983000", "150549.986000", "150549.997000", "150550.000000", "150550.003000", "150550.006000", "150550.009000", "150550.012000", "150550.015000", "150550.018000", "150550.021000", "150550.024000", "150550.027000", "150629.927000", "150629.930000", "150629.933000", "150629.936000", "150629.939000", "150629.942000", "150629.945000", "150629.948000", "150629.951000", "150629.954000", "150629.956000", "150629.959000", "150629.962000", "150629.965000", "150629.968000", "150629.971000", "150629.974000", "150629.977000", "150629.980000", "150629.983000", "150629.986000", "150629.989000", "150629.991000", "150629.995000", "150629.998000", "150630.002000", "150630.005000", "150630.008000", "150630.011000", "150630.014000", "150630.017000", "150709.926000", "150709.929000", "150709.932000", "150709.935000", "150709.938000", "150709.941000", "150709.944000", "150709.947000", "150709.950000", "150709.953000", "150709.956000", "150709.959000", "150709.962000", "150709.965000", "150709.968000", "150709.971000", "150709.982000", "150709.985000", "150709.988000", "150709.991000", "150709.994000", "150709.997000", "150710.000000", "150710.004000", "150710.006000", "150710.009000", "150710.012000", "150710.015000", "150710.018000", "150710.021000", "150710.024000", "150749.926000", "150749.929000", "150749.932000", "150749.935000", "150749.938000", "150749.941000", "150749.944000", "150749.947000", "150749.949000", "150749.952000", "150749.955000", "150749.958000", "150749.961000", "150749.964000", "150749.967000", "150749.970000", "150749.973000", "150749.976000", "150749.979000", "150749.982000", "150749.985000", "150749.987000", "150749.990000", "150749.993000", "150749.996000", "150750.000000", "150750.003000", "150750.006000", "150750.023000", "150750.026000", "150750.029000", "150829.927000", "150829.930000", "150829.933000", "150829.936000", "150829.939000", "150829.942000", "150829.945000", "150829.948000", "150829.951000", "150829.954000", "150829.957000", "150829.960000", "150829.963000", "150829.966000", "150829.968000", "150829.971000", "150829.974000", "150829.977000", "150829.980000", "150829.983000", "150829.986000", "150829.989000", "150829.992000", "150829.995000", "150829.998000", "150830.002000", "150830.004000", "150830.008000", "150830.010000", "150830.013000", "150830.016000", "150830.019000", "150909.927000", "150909.930000", "150909.933000", "150909.936000", "150909.939000", "150909.942000", "150909.945000", "150909.948000", "150909.951000", "150909.953000", "150909.956000", "150909.959000", "150909.962000", "150909.965000", "150909.968000", "150909.971000", "150909.974000", "150909.977000", "150909.979000", "150909.982000", "150909.985000", "150909.988000", "150909.991000", "150909.994000", "150909.997000", "150910.001000", "150910.004000", "150910.007000", "150910.010000", "150910.013000", "150910.016000", "150949.926000", "150949.929000", "150949.932000", "150949.935000", "150949.938000", "150949.941000", "150949.944000", "150949.947000", "150949.950000", "150949.953000", "150949.956000", "150949.959000", "150949.962000", "150949.965000", "150949.968000", "150949.971000", "150949.974000", "150949.977000", "150949.979000", "150949.982000", "150949.985000", "150949.988000", "150949.991000", "150949.994000", "150949.997000", "150950.001000", "150950.004000", "150950.007000", "150950.010000", "150950.013000", "150950.016000", "151029.927000", "151029.930000", "151029.933000", "151029.936000", "151029.939000", "151029.942000", "151029.945000", "151029.948000", "151029.951000", "151029.954000", "151029.957000", "151029.960000", "151029.963000", "151029.966000", "151029.969000", "151029.972000", "151029.975000", "151029.978000", "151029.981000", "151029.984000", "151029.986000", "151029.989000", "151029.992000", "151029.995000", "151029.998000", "151030.001000", "151030.004000", "151030.007000", "151030.010000", "151030.013000", "151030.016000", "151109.927000", "151109.930000", "151109.933000", "151109.936000", "151109.939000", "151109.942000", "151109.945000", "151109.948000", "151109.951000", "151109.954000", "151109.957000", "151109.960000", "151109.963000", "151109.966000", "151109.969000", "151109.972000", "151109.974000", "151109.977000", "151109.980000", "151109.983000", "151109.986000", "151109.989000", "151109.992000", "151109.995000", "151109.998000", "151110.002000", "151110.005000", "151110.008000", "151110.011000", "151110.014000", "151110.017000", "151110.020000", "151149.926000", "151149.929000", "151149.932000", "151149.935000", "151149.938000", "151149.941000", "151149.944000", "151149.947000", "151149.950000", "151149.953000", "151149.956000", "151149.959000", "151149.962000", "151149.965000", "151149.968000", "151149.971000", "151149.973000", "151149.977000", "151149.979000", "151149.995000", "151149.998000", "151150.003000", "151150.005000", "151150.008000", "151150.011000", "151150.014000", "151150.017000", "151150.020000", "151150.023000", "151150.026000", "151150.029000", "151226.584000", "151226.588000", "151226.591000", "151226.594000", "151226.597000", "151226.600000", "151226.603000", "151226.606000", "151226.610000", "151226.613000", "151226.616000", "151226.620000", "151226.624000", "151226.628000", "151226.632000", "151226.637000", "151226.644000", "151226.648000", "151226.651000", "151226.654000", "151226.658000", "151226.661000", "151226.664000", "151226.668000", "151226.671000", "151226.675000", "151226.678000", "151226.681000", "151226.685000"],
      "InstanceNumber": [1, 2, 3, 4, 5, 6, 7, 8, 9, 10, 11, 12, 13, 14, 15, 16, 17, 18, 19, 20, 21, 22, 23, 24, 25, 26, 27, 28, 29, 30, 31, 32, 33, 34, 35, 36, 37, 38, 39, 40, 41, 42, 43, 44, 45, 46, 47, 48, 49, 50, 51, 52, 53, 54, 55, 56, 57, 58, 59, 60, 61, 62, 63, 64, 65, 66, 67, 68, 69, 70, 71, 72, 73, 74, 75, 76, 77, 78, 79, 80, 81, 82, 83, 84, 85, 86, 87, 88, 89, 90, 91, 92, 93, 94, 95, 96, 97, 98, 99, 100, 101, 102, 103, 104, 105, 106, 107, 108, 109, 110, 111, 112, 113, 114, 115, 116, 117, 118, 119, 120, 121, 122, 123, 124, 125, 126, 127, 128, 129, 130, 131, 132, 133, 134, 135, 136, 137, 138, 139, 140, 141, 142, 143, 144, 145, 146, 147, 148, 149, 150, 151, 152, 153, 154, 155, 156, 157, 158, 159, 160, 161, 162, 163, 164, 165, 166, 167, 168, 169, 170, 171, 172, 173, 174, 175, 176, 177, 178, 179, 180, 181, 182, 183, 184, 185, 186, 187, 188, 189, 190, 191, 192, 193, 194, 195, 196, 197, 198, 199, 200, 201, 202, 203, 204, 205, 206, 207, 208, 209, 210, 211, 212, 213, 214, 215, 216, 217, 218, 219, 220, 221, 222, 223, 224, 225, 226, 227, 228, 229, 230, 231, 232, 233, 234, 235, 236, 237, 238, 239, 240, 241, 242, 243, 244, 245, 246, 247, 248, 249, 250, 251, 252, 253, 254, 255, 256, 257, 258, 259, 260, 261, 262, 263, 264, 265, 266, 267, 268, 269, 270, 271, 272, 273, 274, 275, 276, 277, 278, 279, 280, 281, 282, 283, 284, 285, 286, 287, 288, 289, 290, 291, 292, 293, 294, 295, 296, 297, 298, 299, 300, 301, 302, 303, 304, 305, 306, 307, 308, 309, 310, 311, 312, 313, 314, 315, 316, 317, 318, 319, 320, 321, 322, 323, 324, 325, 326, 327, 328, 329, 330, 331, 332, 333, 334, 335, 336, 337, 338, 339, 340, 341, 342, 343, 344, 345, 346, 347, 348, 349, 350, 351, 352, 353, 354, 355, 356, 357, 358, 359, 360, 361, 362, 363, 364, 365, 366, 367, 368, 369, 370, 371, 372, 373],
