{
  "AcquisitionMatrixPE": 108,
  "AcquisitionNumber": 1,
  "AcquisitionTime": "11:49:42.665000",
  "BandwidthPerPixelPhaseEncode": 15.964,
  "BaseResolution": 108,
  "BodyPartExamined": "BRAIN",
  "ConsistencyInfo": "N4_VE11C_LATEST_20160120",
  "ConversionSoftware": "dcm2niix",
  "ConversionSoftwareVersion": "v1.0.20180622 GCC6.3.0",
  "DerivedVendorReportedEchoSpacing": 0.000580009,
  "DeviceSerialNumber": "66054",
  "DwellTime": 2.1e-06,
  "EchoTime": 0.031,
  "EchoTrainLength": 95,
  "EffectiveEchoSpacing": 0.000580009,
  "FlipAngle": 64,
  "ImageOrientationPatientDICOM": [0.999495, -0.029625, -0.0114554, 0.0209365, 0.885698, -0.46379],
  "ImageType": [
    "ORIGINAL",
    "PRIMARY",
    "M",
    "ND",
    "MOSAIC"
],
  "InPlanePhaseEncodingDirectionDICOM": "COL",
  "InstitutionAddress": "Chemin_des_Mines_9_Geneve_District_CH_1211",
  "InstitutionName": "Fondation_Campus_Biotech_Geneva",
  "InstitutionalDepartmentName": "Department",
  "MRAcquisitionType": "2D",
  "MagneticFieldStrength": 3,
  "Manufacturer": "Siemens",
  "ManufacturersModelName": "Prisma",
  "Modality": "MR",
  "MultibandAccelerationFactor": 4,
  "PartialFourier": 0.875,
  "PatientPosition": "HFS",
  "PercentPhaseFOV": 100,
  "PhaseEncodingDirection": "j-",
  "PhaseEncodingSteps": 95,
  "PhaseResolution": 1,
  "PixelBandwidth": 2205,
  "ProcedureStepDescription": "J.DRM_Michael",
  "ProtocolName": "Run6_bold_s4_TR1.28",
  "PulseSequenceDetails": "%SiemensSeq%_ep2d_bold",
  "ReceiveCoilActiveElements": "HC1-7;NC1,2",
  "ReceiveCoilName": "HeadNeck_64",
  "ReconMatrixPE": 108,
  "RepetitionTime": 1.28,
  "SAR": 0.0677612,
  "ScanOptions": "PFP_FS",
  "ScanningSequence": "EP",
  "SequenceName": "_epfid2d1_108",
  "SequenceVariant": "SK",
  "SeriesDescription": "Run6_bold_s4_TR1.28",
  "SeriesNumber": 12,
  "ShimSetting": [-1262, -11667, 6218, 205, 149, -204, -173, 12],
  "SliceThickness": 2,
  "SliceTiming": [0.945, 0, 0.63, 0.08, 0.71, 0.1575, 0.7875, 0.2375, 0.8675, 0.395, 1.025, 0.4725, 1.1025, 0.5525, 1.1825, 0.315, 0.945, 0, 0.63, 0.08, 0.71, 0.1575, 0.7875, 0.2375, 0.8675, 0.395, 1.025, 0.4725, 1.1025, 0.5525, 1.1825, 0.315, 0.945, 0, 0.63, 0.08, 0.71, 0.1575, 0.7875, 0.2375, 0.8675, 0.395, 1.025, 0.4725, 1.1025, 0.5525, 1.1825, 0.315, 0.945, 0, 0.63, 0.08, 0.71, 0.1575, 0.7875, 0.2375, 0.8675, 0.395, 1.025, 0.4725, 1.1025, 0.5525, 1.1825, 0.315],
  "SoftwareVersions": "syngo_MR_E11",
  "SpacingBetweenSlices": 2,
  "StationName": "AWP66054",
  "TaskName": "main",
  "TotalReadoutTime": 0.0620609,
  "TxRefAmp": 237.101,
  "dcmmeta_affine": [
    [-1.9897363185882568, 0.04167907312512398, -0.04777156561613083, 103.42425537109375],
    [0.0589756965637207, 1.76319420337677, -0.9266330599784851, -59.932743072509766],
    [-0.02280467003583908, 0.9232863783836365, 1.7717418670654297, -102.53050994873047],
    [0.0, 0.0, 0.0, 1.0]
],
  "dcmmeta_reorient_transform": [
    [0.0, -1.0, 0.0, 107.0],
    [1.0, 0.0, 0.0, 0.0],
    [0.0, 0.0, 1.0, 0.0],
    [0.0, 0.0, 0.0, 1.0]
],
  "dcmmeta_shape": [108, 108, 64, 373],
  "dcmmeta_slice_dim": 2,
  "dcmmeta_version": 0.6,
  "global": {
    "const": {
      "AccessionNumber": "",
      "AcquisitionMatrix": [108, 0, 0, 108],
      "AngioFlag": "N",
      "BitsAllocated": 16,
      "BitsStored": 12,
      "BodyPartExamined": "BRAIN",
      "Columns": 864,
      "EchoNumbers": 1,
      "EchoTime": 31.0,
      "EchoTrainLength": 95,
      "FlipAngle": 64.0,
      "HighBit": 11,
      "ImageOrientationPatient": [0.99949543966732, -0.0296249997203, -0.0114553688639, 0.02093646383304, 0.88569755591064, -0.4637903663684],
      "ImagePositionPatient": [-875.75893803733, -772.92365192586, 353.88355405944],
      "ImageType": [
        "ORIGINAL",
        "PRIMARY",
        "M",
        "ND",
        "MOSAIC"
],
      "ImagedNucleus": "1H",
      "ImagingFrequency": 123.257625,
      "InPlanePhaseEncodingDirection": "COL",
      "MRAcquisitionType": "2D",
      "MagneticFieldStrength": 3.0,
      "Manufacturer": "SIEMENS",
      "ManufacturerModelName": "Prisma",
      "Modality": "MR",
      "NumberOfAverages": 1.0,
      "NumberOfPhaseEncodingSteps": 95,
      "PercentPhaseFieldOfView": 100.0,
      "PercentSampling": 100.0,
      "PerformedProcedureStepStartTime": "104634.439000",
      "PhotometricInterpretation": "MONOCHROME2",
      "PixelBandwidth": 2205.0,
      "PixelRepresentation": 0,
      "PixelSpacing": [1.990740776062, 1.990740776062],
      "PositionReferenceIndicator": "",
      "ProtocolName": "Run6_bold_s4_TR1.28",
      "RepetitionTime": 1280.0,
      "Rows": 864,
      "SAR": 0.06776119460214,
      "SamplesPerPixel": 1,
      "ScanOptions": [
        "PFP",
        "FS"
],
      "ScanningSequence": "EP",
      "SequenceName": "*epfid2d1_108",
      "SequenceVariant": "SK",
      "SeriesDescription": "Run6_bold_s4_TR1.28",
      "SeriesNumber": 12,
      "SeriesTime": "115017.847000",
      "SliceLocation": -65.531338035443,
      "SliceThickness": 2.0,
      "SmallestImagePixelValue": 0,
      "SoftwareVersions": "syngo MR E11",
      "SpacingBetweenSlices": 2.0000000302818,
      "SpecificCharacterSet": "ISO_IR 100",
      "StudyID": "1",
      "StudyTime": "104634.298000",
      "TransmitCoilName": "Body",
      "VariableFlipAngleFlag": "N",
      "WindowCenterWidthExplanation": "Algo1",
      "dBdt": 0.0},
    "slices": {}
  },
  "time": {
    "samples": {
      "AcquisitionNumber": [1, 2, 3, 4, 5, 6, 7, 8, 9, 10, 11, 12, 13, 14, 15, 16, 17, 18, 19, 20, 21, 22, 23, 24, 25, 26, 27, 28, 29, 30, 31, 32, 33, 34, 35, 36, 37, 38, 39, 40, 41, 42, 43, 44, 45, 46, 47, 48, 49, 50, 51, 52, 53, 54, 55, 56, 57, 58, 59, 60, 61, 62, 63, 64, 65, 66, 67, 68, 69, 70, 71, 72, 73, 74, 75, 76, 77, 78, 79, 80, 81, 82, 83, 84, 85, 86, 87, 88, 89, 90, 91, 92, 93, 94, 95, 96, 97, 98, 99, 100, 101, 102, 103, 104, 105, 106, 107, 108, 109, 110, 111, 112, 113, 114, 115, 116, 117, 118, 119, 120, 121, 122, 123, 124, 125, 126, 127, 128, 129, 130, 131, 132, 133, 134, 135, 136, 137, 138, 139, 140, 141, 142, 143, 144, 145, 146, 147, 148, 149, 150, 151, 152, 153, 154, 155, 156, 157, 158, 159, 160, 161, 162, 163, 164, 165, 166, 167, 168, 169, 170, 171, 172, 173, 174, 175, 176, 177, 178, 179, 180, 181, 182, 183, 184, 185, 186, 187, 188, 189, 190, 191, 192, 193, 194, 195, 196, 197, 198, 199, 200, 201, 202, 203, 204, 205, 206, 207, 208, 209, 210, 211, 212, 213, 214, 215, 216, 217, 218, 219, 220, 221, 222, 223, 224, 225, 226, 227, 228, 229, 230, 231, 232, 233, 234, 235, 236, 237, 238, 239, 240, 241, 242, 243, 244, 245, 246, 247, 248, 249, 250, 251, 252, 253, 254, 255, 256, 257, 258, 259, 260, 261, 262, 263, 264, 265, 266, 267, 268, 269, 270, 271, 272, 273, 274, 275, 276, 277, 278, 279, 280, 281, 282, 283, 284, 285, 286, 287, 288, 289, 290, 291, 292, 293, 294, 295, 296, 297, 298, 299, 300, 301, 302, 303, 304, 305, 306, 307, 308, 309, 310, 311, 312, 313, 314, 315, 316, 317, 318, 319, 320, 321, 322, 323, 324, 325, 326, 327, 328, 329, 330, 331, 332, 333, 334, 335, 336, 337, 338, 339, 340, 341, 342, 343, 344, 345, 346, 347, 348, 349, 350, 351, 352, 353, 354, 355, 356, 357, 358, 359, 360, 361, 362, 363, 364, 365, 366, 367, 368, 369, 370, 371, 372, 373],
      "AcquisitionTime": ["114942.665000", "114943.945000", "114945.225000", "114946.505000", "114947.785000", "114949.065000", "114950.345000", "114951.625000", "114952.905000", "114954.185000", "114955.465000", "114956.745000", "114958.025000", "114959.305000", "115000.585000", "115001.865000", "115003.145000", "115004.425000", "115005.705000", "115006.985000", "115008.265000", "115009.545000", "115010.825000", "115012.105000", "115013.385000", "115014.665000", "115015.945000", "115017.225000", "115018.505000", "115019.785000", "115021.065000", "115022.345000", "115023.625000", "115024.905000", "115026.185000", "115027.465000", "115028.745000", "115030.025000", "115031.305000", "115032.585000", "115033.865000", "115035.145000", "115036.425000", "115037.705000", "115038.985000", "115040.265000", "115041.545000", "115042.825000", "115044.105000", "115045.385000", "115046.665000", "115047.945000", "115049.225000", "115050.505000", "115051.785000", "115053.065000", "115054.345000", "115055.625000", "115056.905000", "115058.185000", "115059.465000", "115100.745000", "115102.025000", "115103.305000", "115104.585000", "115105.865000", "115107.145000", "115108.425000", "115109.705000", "115110.985000", "115112.265000", "115113.545000", "115114.825000", "115116.105000", "115117.385000", "115118.665000", "115119.945000", "115121.225000", "115122.505000", "115123.785000", "115125.065000", "115126.345000", "115127.625000", "115128.905000", "115130.185000", "115131.465000", "115132.745000", "115134.025000", "115135.305000", "115136.585000", "115137.865000", "115139.145000", "115140.425000", "115141.705000", "115142.985000", "115144.265000", "115145.545000", "115146.825000", "115148.105000", "115149.385000", "115150.665000", "115151.945000", "115153.225000", "115154.505000", "115155.785000", "115157.065000", "115158.345000", "115159.625000", "115200.905000", "115202.185000", "115203.465000", "115204.745000", "115206.025000", "115207.305000", "115208.585000", "115209.865000", "115211.145000", "115212.425000", "115213.705000", "115214.985000", "115216.265000", "115217.545000", "115218.825000", "115220.105000", "115221.385000", "115222.665000", "115223.945000", "115225.225000", "115226.505000", "115227.785000", "115229.065000", "115230.345000", "115231.625000", "115232.905000", "115234.185000", "115235.465000", "115236.745000", "115238.025000", "115239.305000", "115240.585000", "115241.865000", "115243.145000", "115244.425000", "115245.705000", "115246.985000", "115248.265000", "115249.545000", "115250.825000", "115252.105000", "115253.385000", "115254.665000", "115255.945000", "115257.225000", "115258.505000", "115259.785000", "115301.065000", "115302.345000", "115303.625000", "115304.905000", "115306.185000", "115307.465000", "115308.745000", "115310.025000", "115311.305000", "115312.585000", "115313.865000", "115315.145000", "115316.425000", "115317.705000", "115318.985000", "115320.265000", "115321.545000", "115322.825000", "115324.105000", "115325.385000", "115326.665000", "115327.945000", "115329.225000", "115330.505000", "115331.785000", "115333.065000", "115334.345000", "115335.625000", "115336.905000", "115338.185000", "115339.465000", "115340.745000", "115342.025000", "115343.305000", "115344.585000", "115345.865000", "115347.145000", "115348.425000", "115349.705000", "115350.985000", "115352.265000", "115353.545000", "115354.825000", "115356.105000", "115357.385000", "115358.665000", "115359.945000", "115401.225000", "115402.505000", "115403.785000", "115405.065000", "115406.345000", "115407.625000", "115408.905000", "115410.185000", "115411.465000", "115412.745000", "115414.025000", "115415.305000", "115416.585000", "115417.865000", "115419.145000", "115420.425000", "115421.705000", "115422.985000", "115424.265000", "115425.545000", "115426.825000", "115428.105000", "115429.385000", "115430.665000", "115431.945000", "115433.225000", "115434.505000", "115435.785000", "115437.065000", "115438.345000", "115439.625000", "115440.905000", "115442.185000", "115443.465000", "115444.745000", "115446.025000", "115447.305000", "115448.585000", "115449.865000", "115451.145000", "115452.425000", "115453.705000", "115454.985000", "115456.265000", "115457.545000", "115458.825000", "115500.105000", "115501.385000", "115502.665000", "115503.945000", "115505.225000", "115506.505000", "115507.785000", "115509.065000", "115510.345000", "115511.625000", "115512.905000", "115514.185000", "115515.465000", "115516.745000", "115518.025000", "115519.305000", "115520.585000", "115521.865000", "115523.145000", "115524.425000", "115525.705000", "115526.985000", "115528.265000", "115529.545000", "115530.825000", "115532.105000", "115533.385000", "115534.665000", "115535.945000", "115537.225000", "115538.505000", "115539.785000", "115541.065000", "115542.345000", "115543.625000", "115544.905000", "115546.185000", "115547.465000", "115548.745000", "115550.025000", "115551.305000", "115552.585000", "115553.865000", "115555.145000", "115556.425000", "115557.705000", "115558.985000", "115600.265000", "115601.545000", "115602.825000", "115604.105000", "115605.385000", "115606.665000", "115607.945000", "115609.225000", "115610.505000", "115611.785000", "115613.065000", "115614.345000", "115615.625000", "115616.905000", "115618.185000", "115619.465000", "115620.745000", "115622.025000", "115623.305000", "115624.585000", "115625.865000", "115627.145000", "115628.425000", "115629.705000", "115630.985000", "115632.265000", "115633.545000", "115634.825000", "115636.105000", "115637.385000", "115638.665000", "115639.945000", "115641.225000", "115642.505000", "115643.785000", "115645.065000", "115646.345000", "115647.625000", "115648.905000", "115650.185000", "115651.465000", "115652.745000", "115654.025000", "115655.305000", "115656.585000", "115657.865000", "115659.145000", "115700.425000", "115701.705000", "115702.985000", "115704.265000", "115705.545000", "115706.825000", "115708.105000", "115709.385000", "115710.665000", "115711.945000", "115713.225000", "115714.505000", "115715.785000", "115717.065000", "115718.345000", "115719.625000", "115720.905000", "115722.185000", "115723.465000", "115724.745000", "115726.025000", "115727.305000", "115728.585000", "115729.865000", "115731.145000", "115732.425000", "115733.705000", "115734.985000", "115736.265000", "115737.545000", "115738.825000"],
      "ContentTime": ["115017.851000", "115017.854000", "115017.857000", "115017.860000", "115017.863000", "115017.866000", "115017.869000", "115017.872000", "115017.875000", "115017.878000", "115017.881000", "115017.883000", "115017.887000", "115017.889000", "115017.892000", "115017.895000", "115017.898000", "115017.901000", "115017.904000", "115017.907000", "115017.909000", "115017.912000", "115017.915000", "115017.918000", "115017.921000", "115017.924000", "115017.927000", "115057.846000", "115057.849000", "115057.852000", "115057.855000", "115057.858000", "115057.860000", "115057.864000", "115057.866000", "115057.876000", "115057.878000", "115057.881000", "115057.884000", "115057.887000", "115057.890000", "115057.893000", "115057.896000", "115057.899000", "115057.902000", "115057.904000", "115057.907000", "115057.910000", "115057.913000", "115057.916000", "115057.919000", "115057.922000", "115057.924000", "115057.927000", "115057.930000", "115057.933000", "115057.936000", "115057.939000", "115137.847000", "115137.850000", "115137.853000", "115137.856000", "115137.858000", "115137.862000", "115137.864000", "115137.867000", "115137.870000", "115137.873000", "115137.876000", "115137.879000", "115137.882000", "115137.884000", "115137.887000", "115137.896000", "115137.899000", "115137.901000", "115137.904000", "115137.907000", "115137.910000", "115137.913000", "115137.916000", "115137.919000", "115137.922000", "115137.925000", "115137.927000", "115137.930000", "115137.933000", "115137.936000", "115137.939000", "115137.942000", "115217.846000", "115217.849000", "115217.852000", "115217.855000", "115217.858000", "115217.861000", "115217.864000", "115217.867000", "115217.869000", "115217.872000", "115217.875000", "115217.878000", "115217.881000", "115217.884000", "115217.887000", "115217.890000", "115217.893000", "115217.896000", "115217.899000", "115217.902000", "115217.904000", "115217.908000", "115217.911000", "115217.914000", "115217.916000", "115217.920000", "115217.922000", "115217.925000", "115217.928000", "115217.931000", "115217.934000", "115257.846000", "115257.849000", "115257.852000", "115257.855000", "115257.858000", "115257.860000", "115257.864000", "115257.867000", "115257.870000", "115257.873000", "115257.875000", "115257.878000", "115257.881000", "115257.884000", "115257.887000", "115257.890000", "115257.893000", "115257.896000", "115257.898000", "115257.901000", "115257.904000", "115257.907000", "115257.910000", "115257.913000", "115257.916000", "115257.919000", "115257.922000", "115257.924000", "115257.927000", "115257.930000", "115257.933000", "115337.846000", "115337.849000", "115337.852000", "115337.855000", "115337.858000", "115337.861000", "115337.863000", "115337.867000", "115337.869000", "115337.872000", "115337.875000", "115337.878000", "115337.881000", "115337.884000", "115337.887000", "115337.890000", "115337.893000", "115337.896000", "115337.898000", "115337.901000", "115337.904000", "115337.907000", "115337.910000", "115337.913000", "115337.916000", "115337.919000", "115337.931000", "115337.934000", "115337.937000", "115337.940000", "115337.943000", "115417.847000", "115417.850000", "115417.853000", "115417.856000", "115417.859000", "115417.862000", "115417.864000", "115417.867000", "115417.870000", "115417.873000", "115417.876000", "115417.879000", "115417.882000", "115417.885000", "115417.888000", "115417.891000", "115417.894000", "115417.896000", "115417.899000", "115417.902000", "115417.905000", "115417.908000", "115417.911000", "115417.914000", "115417.917000", "115417.920000", "115417.922000", "115417.925000", "115417.928000", "115417.931000", "115417.934000", "115417.937000", "115457.846000", "115457.849000", "115457.852000", "115457.855000", "115457.858000", "115457.861000", "115457.864000", "115457.867000", "115457.869000", "115457.872000", "115457.875000", "115457.878000", "115457.881000", "115457.884000", "115457.887000", "115457.890000", "115457.893000", "115457.896000", "115457.899000", "115457.902000", "115457.905000", "115457.907000", "115457.911000", "115457.913000", "115457.916000", "115457.919000", "115457.922000", "115457.925000", "115457.928000", "115457.931000", "115457.934000", "115517.846000", "115517.913000", "115517.916000", "115517.919000", "115517.922000", "115517.925000", "115517.928000", "115517.930000", "115517.933000", "115517.936000", "115517.939000", "115517.942000", "115517.945000", "115517.948000", "115517.950000", "115557.846000", "115557.849000", "115557.852000", "115557.855000", "115557.858000", "115557.861000", "115557.864000", "115557.866000", "115557.869000", "115557.872000", "115557.875000", "115557.878000", "115557.881000", "115557.884000", "115557.887000", "115557.890000", "115557.893000", "115557.895000", "115557.899000", "115557.901000", "115557.904000", "115557.907000", "115557.910000", "115557.913000", "115557.916000", "115557.919000", "115557.922000", "115557.925000", "115557.927000", "115557.930000", "115557.933000", "115557.936000", "115637.847000", "115637.850000", "115637.853000", "115637.856000", "115637.858000", "115637.861000", "115637.864000", "115637.867000", "115637.870000", "115637.873000", "115637.876000", "115637.879000", "115637.882000", "115637.885000", "115637.888000", "115637.890000", "115637.893000", "115637.896000", "115637.899000", "115637.902000", "115637.905000", "115637.908000", "115637.911000", "115637.913000", "115637.916000", "115637.919000", "115637.922000", "115637.925000", "115637.928000", "115637.931000", "115637.934000", "115717.846000", "115717.849000", "115717.852000", "115717.855000", "115717.857000", "115717.860000", "115717.863000", "115717.866000", "115717.869000", "115717.872000", "115717.875000", "115717.878000", "115717.880000", "115717.883000", "115717.886000", "115717.889000", "115717.892000", "115717.895000", "115717.898000", "115717.900000", "115717.903000", "115717.906000", "115717.909000", "115717.912000", "115717.915000", "115717.918000", "115717.921000", "115717.923000", "115717.926000", "115717.929000", "115717.932000", "115739.908000", "115739.911000", "115739.927000", "115739.930000", "115739.933000", "115739.937000", "115739.940000", "115739.943000", "115739.947000", "115739.951000", "115739.955000", "115739.959000", "115739.966000", "115739.969000", "115739.973000", "115739.976000", "115739.996000", "115740.003000"],
      "InstanceCreationTime": ["115017.851000", "115017.854000", "115017.857000", "115017.860000", "115017.863000", "115017.866000", "115017.869000", "115017.872000", "115017.875000", "115017.878000", "115017.881000", "115017.883000", "115017.887000", "115017.889000", "115017.892000", "115017.895000", "115017.898000", "115017.901000", "115017.904000", "115017.907000", "115017.909000", "115017.912000", "115017.915000", "115017.918000", "115017.921000", "115017.924000", "115017.927000", "115057.846000", "115057.849000", "115057.852000", "115057.855000", "115057.858000", "115057.860000", "115057.864000", "115057.866000", "115057.876000", "115057.878000", "115057.881000", "115057.884000", "115057.887000", "115057.890000", "115057.893000", "115057.896000", "115057.899000", "115057.902000", "115057.904000", "115057.907000", "115057.910000", "115057.913000", "115057.916000", "115057.919000", "115057.922000", "115057.924000", "115057.927000", "115057.930000", "115057.933000", "115057.936000", "115057.939000", "115137.847000", "115137.850000", "115137.853000", "115137.856000", "115137.858000", "115137.862000", "115137.864000", "115137.867000", "115137.870000", "115137.873000", "115137.876000", "115137.879000", "115137.882000", "115137.884000", "115137.887000", "115137.896000", "115137.899000", "115137.901000", "115137.904000", "115137.907000", "115137.910000", "115137.913000", "115137.916000", "115137.919000", "115137.922000", "115137.925000", "115137.927000", "115137.930000", "115137.933000", "115137.936000", "115137.939000", "115137.942000", "115217.846000", "115217.849000", "115217.852000", "115217.855000", "115217.858000", "115217.861000", "115217.864000", "115217.867000", "115217.869000", "115217.872000", "115217.875000", "115217.878000", "115217.881000", "115217.884000", "115217.887000", "115217.890000", "115217.893000", "115217.896000", "115217.899000", "115217.902000", "115217.904000", "115217.908000", "115217.911000", "115217.914000", "115217.916000", "115217.920000", "115217.922000", "115217.925000", "115217.928000", "115217.931000", "115217.934000", "115257.846000", "115257.849000", "115257.852000", "115257.855000", "115257.858000", "115257.860000", "115257.864000", "115257.867000", "115257.870000", "115257.873000", "115257.875000", "115257.878000", "115257.881000", "115257.884000", "115257.887000", "115257.890000", "115257.893000", "115257.896000", "115257.898000", "115257.901000", "115257.904000", "115257.907000", "115257.910000", "115257.913000", "115257.916000", "115257.919000", "115257.922000", "115257.924000", "115257.927000", "115257.930000", "115257.933000", "115337.846000", "115337.849000", "115337.852000", "115337.855000", "115337.858000", "115337.861000", "115337.863000", "115337.867000", "115337.869000", "115337.872000", "115337.875000", "115337.878000", "115337.881000", "115337.884000", "115337.887000", "115337.890000", "115337.893000", "115337.896000", "115337.898000", "115337.901000", "115337.904000", "115337.907000", "115337.910000", "115337.913000", "115337.916000", "115337.919000", "115337.931000", "115337.934000", "115337.937000", "115337.940000", "115337.943000", "115417.847000", "115417.850000", "115417.853000", "115417.856000", "115417.859000", "115417.862000", "115417.864000", "115417.867000", "115417.870000", "115417.873000", "115417.876000", "115417.879000", "115417.882000", "115417.885000", "115417.888000", "115417.891000", "115417.894000", "115417.896000", "115417.899000", "115417.902000", "115417.905000", "115417.908000", "115417.911000", "115417.914000", "115417.917000", "115417.920000", "115417.922000", "115417.925000", "115417.928000", "115417.931000", "115417.934000", "115417.937000", "115457.846000", "115457.849000", "115457.852000", "115457.855000", "115457.858000", "115457.861000", "115457.864000", "115457.867000", "115457.869000", "115457.872000", "115457.875000", "115457.878000", "115457.881000", "115457.884000", "115457.887000", "115457.890000", "115457.893000", "115457.896000", "115457.899000", "115457.902000", "115457.905000", "115457.907000", "115457.911000", "115457.913000", "115457.916000", "115457.919000", "115457.922000", "115457.925000", "115457.928000", "115457.931000", "115457.934000", "115517.846000", "115517.913000", "115517.916000", "115517.919000", "115517.922000", "115517.925000", "115517.928000", "115517.930000", "115517.933000", "115517.936000", "115517.939000", "115517.942000", "115517.945000", "115517.948000", "115517.950000", "115557.846000", "115557.849000", "115557.852000", "115557.855000", "115557.858000", "115557.861000", "115557.864000", "115557.866000", "115557.869000", "115557.872000", "115557.875000", "115557.878000", "115557.881000", "115557.884000", "115557.887000", "115557.890000", "115557.893000", "115557.895000", "115557.899000", "115557.901000", "115557.904000", "115557.907000", "115557.910000", "115557.913000", "115557.916000", "115557.919000", "115557.922000", "115557.925000", "115557.927000", "115557.930000", "115557.933000", "115557.936000", "115637.847000", "115637.850000", "115637.853000", "115637.856000", "115637.858000", "115637.861000", "115637.864000", "115637.867000", "115637.870000", "115637.873000", "115637.876000", "115637.879000", "115637.882000", "115637.885000", "115637.888000", "115637.890000", "115637.893000", "115637.896000", "115637.899000", "115637.902000", "115637.905000", "115637.908000", "115637.911000", "115637.913000", "115637.916000", "115637.919000", "115637.922000", "115637.925000", "115637.928000", "115637.931000", "115637.934000", "115717.846000", "115717.849000", "115717.852000", "115717.855000", "115717.857000", "115717.860000", "115717.863000", "115717.866000", "115717.869000", "115717.872000", "115717.875000", "115717.878000", "115717.880000", "115717.883000", "115717.886000", "115717.889000", "115717.892000", "115717.895000", "115717.898000", "115717.900000", "115717.903000", "115717.906000", "115717.909000", "115717.912000", "115717.915000", "115717.918000", "115717.921000", "115717.923000", "115717.926000", "115717.929000", "115717.932000", "115739.908000", "115739.911000", "115739.927000", "115739.930000", "115739.933000", "115739.937000", "115739.940000", "115739.943000", "115739.947000", "115739.951000", "115739.955000", "115739.959000", "115739.966000", "115739.969000", "115739.973000", "115739.976000", "115739.996000", "115740.003000"],
      "InstanceNumber": [1, 2, 3, 4, 5, 6, 7, 8, 9, 10, 11, 12, 13, 14, 15, 16, 17, 18, 19, 20, 21, 22, 23, 24, 25, 26, 27, 28, 29, 30, 31, 32, 33, 34, 35, 36, 37, 38, 39, 40, 41, 42, 43, 44, 45, 46, 47, 48, 49, 50, 51, 52, 53, 54, 55, 56, 57, 58, 59, 60, 61, 62, 63, 64, 65, 66, 67, 68, 69, 70, 71, 72, 73, 74, 75, 76, 77, 78, 79, 80, 81, 82, 83, 84, 85, 86, 87, 88, 89, 90, 91, 92, 93, 94, 95, 96, 97, 98, 99, 100, 101, 102, 103, 104, 105, 106, 107, 108, 109, 110, 111, 112, 113, 114, 115, 116, 117, 118, 119, 120, 121, 122, 123, 124, 125, 126, 127, 128, 129, 130, 131, 132, 133, 134, 135, 136, 137, 138, 139, 140, 141, 142, 143, 144, 145, 146, 147, 148, 149, 150, 151, 152, 153, 154, 155, 156, 157, 158, 159, 160, 161, 162, 163, 164, 165, 166, 167, 168, 169, 170, 171, 172, 173, 174, 175, 176, 177, 178, 179, 180, 181, 182, 183, 184, 185, 186, 187, 188, 189, 190, 191, 192, 193, 194, 195, 196, 197, 198, 199, 200, 201, 202, 203, 204, 205, 206, 207, 208, 209, 210, 211, 212, 213, 214, 215, 216, 217, 218, 219, 220, 221, 222, 223, 224, 225, 226, 227, 228, 229, 230, 231, 232, 233, 234, 235, 236, 237, 238, 239, 240, 241, 242, 243, 244, 245, 246, 247, 248, 249, 250, 251, 252, 253, 254, 255, 256, 257, 258, 259, 260, 261, 262, 263, 264, 265, 266, 267, 268, 269, 270, 271, 272, 273, 274, 275, 276, 277, 278, 279, 280, 281, 282, 283, 284, 285, 286, 287, 288, 289, 290, 291, 292, 293, 294, 295, 296, 297, 298, 299, 300, 301, 302, 303, 304, 305, 306, 307, 308, 309, 310, 311, 312, 313, 314, 315, 316, 317, 318, 319, 320, 321, 322, 323, 324, 325, 326, 327, 328, 329, 330, 331, 332, 333, 334, 335, 336, 337, 338, 339, 340, 341, 342, 343, 344, 345, 346, 347, 348, 349, 350, 351, 352, 353, 354, 355, 356, 357, 358, 359, 360, 361, 362, 363, 364, 365, 366, 367, 368, 369, 370, 371, 372, 373],
