{
  "AcquisitionMatrixPE": 108,
  "AcquisitionNumber": 1,
  "AcquisitionTime": "11:09:15.897500",
  "BandwidthPerPixelPhaseEncode": 15.964,
  "BaseResolution": 108,
  "BodyPartExamined": "BRAIN",
  "ConsistencyInfo": "N4_VE11C_LATEST_20160120",
  "ConversionSoftware": "dcm2niix",
  "ConversionSoftwareVersion": "v1.0.20180622 GCC6.3.0",
  "DerivedVendorReportedEchoSpacing": 0.000580009,
  "DeviceSerialNumber": "66054",
  "DwellTime": 2.1e-06,
  "EchoTime": 0.031,
  "EchoTrainLength": 95,
  "EffectiveEchoSpacing": 0.000580009,
  "FlipAngle": 64,
  "ImageOrientationPatientDICOM": [0.999495, -0.029625, -0.0114554, 0.0209365, 0.885698, -0.46379],
  "ImageType": [
    "ORIGINAL",
    "PRIMARY",
    "M",
    "ND",
    "MOSAIC"
],
  "InPlanePhaseEncodingDirectionDICOM": "COL",
  "InstitutionAddress": "Chemin_des_Mines_9_Geneve_District_CH_1211",
  "InstitutionName": "Fondation_Campus_Biotech_Geneva",
  "InstitutionalDepartmentName": "Department",
  "MRAcquisitionType": "2D",
  "MagneticFieldStrength": 3,
  "Manufacturer": "Siemens",
  "ManufacturersModelName": "Prisma",
  "Modality": "MR",
  "MultibandAccelerationFactor": 4,
  "PartialFourier": 0.875,
  "PatientPosition": "HFS",
  "PercentPhaseFOV": 100,
  "PhaseEncodingDirection": "j-",
  "PhaseEncodingSteps": 95,
  "PhaseResolution": 1,
  "PixelBandwidth": 2205,
  "ProcedureStepDescription": "J.DRM_Michael",
  "ProtocolName": "Run3_bold_s4_TR1.28",
  "PulseSequenceDetails": "%SiemensSeq%_ep2d_bold",
  "ReceiveCoilActiveElements": "HC1-7;NC1,2",
  "ReceiveCoilName": "HeadNeck_64",
  "ReconMatrixPE": 108,
  "RepetitionTime": 1.28,
  "SAR": 0.0677612,
  "ScanOptions": "PFP_FS",
  "ScanningSequence": "EP",
  "SequenceName": "_epfid2d1_108",
  "SequenceVariant": "SK",
  "SeriesDescription": "Run3_bold_s4_TR1.28",
  "SeriesNumber": 7,
  "ShimSetting": [-1262, -11667, 6218, 205, 149, -204, -173, 12],
  "SliceThickness": 2,
  "SliceTiming": [0.9425, 0, 0.63, 0.0775, 0.7075, 0.1575, 0.785, 0.235, 0.865, 0.3925, 1.0225, 0.4725, 1.1, 0.55, 1.18, 0.315, 0.9425, 0, 0.63, 0.0775, 0.7075, 0.1575, 0.785, 0.235, 0.865, 0.3925, 1.0225, 0.4725, 1.1, 0.55, 1.18, 0.315, 0.9425, 0, 0.63, 0.0775, 0.7075, 0.1575, 0.785, 0.235, 0.865, 0.3925, 1.0225, 0.4725, 1.1, 0.55, 1.18, 0.315, 0.9425, 0, 0.63, 0.0775, 0.7075, 0.1575, 0.785, 0.235, 0.865, 0.3925, 1.0225, 0.4725, 1.1, 0.55, 1.18, 0.315],
  "SoftwareVersions": "syngo_MR_E11",
  "SpacingBetweenSlices": 2,
  "StationName": "AWP66054",
  "TaskName": "main",
  "TotalReadoutTime": 0.0620609,
  "TxRefAmp": 237.101,
  "dcmmeta_affine": [
    [-1.9897363185882568, 0.04167907312512398, -0.04777156561613083, 103.42425537109375],
    [0.0589756965637207, 1.76319420337677, -0.9266330599784851, -59.932743072509766],
    [-0.02280467003583908, 0.9232863783836365, 1.7717418670654297, -102.53050994873047],
    [0.0, 0.0, 0.0, 1.0]
],
  "dcmmeta_reorient_transform": [
    [0.0, -1.0, 0.0, 107.0],
    [1.0, 0.0, 0.0, 0.0],
    [0.0, 0.0, 1.0, 0.0],
    [0.0, 0.0, 0.0, 1.0]
],
  "dcmmeta_shape": [108, 108, 64, 373],
  "dcmmeta_slice_dim": 2,
  "dcmmeta_version": 0.6,
  "global": {
    "const": {
      "AccessionNumber": "",
      "AcquisitionMatrix": [108, 0, 0, 108],
      "AngioFlag": "N",
      "BitsAllocated": 16,
      "BitsStored": 12,
      "BodyPartExamined": "BRAIN",
      "Columns": 864,
      "EchoNumbers": 1,
      "EchoTime": 31.0,
      "EchoTrainLength": 95,
      "FlipAngle": 64.0,
      "HighBit": 11,
      "ImageOrientationPatient": [0.99949543966732, -0.0296249997203, -0.0114553688639, 0.02093646383304, 0.88569755591064, -0.4637903663684],
      "ImagePositionPatient": [-875.75893803733, -772.92365192586, 353.88355405944],
      "ImageType": [
        "ORIGINAL",
        "PRIMARY",
        "M",
        "ND",
        "MOSAIC"
],
      "ImagedNucleus": "1H",
      "ImagingFrequency": 123.257609,
      "InPlanePhaseEncodingDirection": "COL",
      "MRAcquisitionType": "2D",
      "MagneticFieldStrength": 3.0,
      "Manufacturer": "SIEMENS",
      "ManufacturerModelName": "Prisma",
      "Modality": "MR",
      "NumberOfAverages": 1.0,
      "NumberOfPhaseEncodingSteps": 95,
      "PercentPhaseFieldOfView": 100.0,
      "PercentSampling": 100.0,
      "PerformedProcedureStepStartTime": "104634.439000",
      "PhotometricInterpretation": "MONOCHROME2",
      "PixelBandwidth": 2205.0,
      "PixelRepresentation": 0,
      "PixelSpacing": [1.990740776062, 1.990740776062],
      "PositionReferenceIndicator": "",
      "ProtocolName": "Run3_bold_s4_TR1.28",
      "RepetitionTime": 1280.0,
      "Rows": 864,
      "SAR": 0.06776119460214,
      "SamplesPerPixel": 1,
      "ScanOptions": [
        "PFP",
        "FS"
],
      "ScanningSequence": "EP",
      "SequenceName": "*epfid2d1_108",
      "SequenceVariant": "SK",
      "SeriesDescription": "Run3_bold_s4_TR1.28",
      "SeriesNumber": 7,
      "SeriesTime": "110957.919000",
      "SliceLocation": -65.531338035443,
      "SliceThickness": 2.0,
      "SmallestImagePixelValue": 0,
      "SoftwareVersions": "syngo MR E11",
      "SpacingBetweenSlices": 2.0000000302818,
      "SpecificCharacterSet": "ISO_IR 100",
      "StudyID": "1",
      "StudyTime": "104634.298000",
      "TransmitCoilName": "Body",
      "VariableFlipAngleFlag": "N",
      "WindowCenterWidthExplanation": "Algo1",
      "dBdt": 0.0},
    "slices": {}
  },
  "time": {
    "samples": {
      "AcquisitionNumber": [1, 2, 3, 4, 5, 6, 7, 8, 9, 10, 11, 12, 13, 14, 15, 16, 17, 18, 19, 20, 21, 22, 23, 24, 25, 26, 27, 28, 29, 30, 31, 32, 33, 34, 35, 36, 37, 38, 39, 40, 41, 42, 43, 44, 45, 46, 47, 48, 49, 50, 51, 52, 53, 54, 55, 56, 57, 58, 59, 60, 61, 62, 63, 64, 65, 66, 67, 68, 69, 70, 71, 72, 73, 74, 75, 76, 77, 78, 79, 80, 81, 82, 83, 84, 85, 86, 87, 88, 89, 90, 91, 92, 93, 94, 95, 96, 97, 98, 99, 100, 101, 102, 103, 104, 105, 106, 107, 108, 109, 110, 111, 112, 113, 114, 115, 116, 117, 118, 119, 120, 121, 122, 123, 124, 125, 126, 127, 128, 129, 130, 131, 132, 133, 134, 135, 136, 137, 138, 139, 140, 141, 142, 143, 144, 145, 146, 147, 148, 149, 150, 151, 152, 153, 154, 155, 156, 157, 158, 159, 160, 161, 162, 163, 164, 165, 166, 167, 168, 169, 170, 171, 172, 173, 174, 175, 176, 177, 178, 179, 180, 181, 182, 183, 184, 185, 186, 187, 188, 189, 190, 191, 192, 193, 194, 195, 196, 197, 198, 199, 200, 201, 202, 203, 204, 205, 206, 207, 208, 209, 210, 211, 212, 213, 214, 215, 216, 217, 218, 219, 220, 221, 222, 223, 224, 225, 226, 227, 228, 229, 230, 231, 232, 233, 234, 235, 236, 237, 238, 239, 240, 241, 242, 243, 244, 245, 246, 247, 248, 249, 250, 251, 252, 253, 254, 255, 256, 257, 258, 259, 260, 261, 262, 263, 264, 265, 266, 267, 268, 269, 270, 271, 272, 273, 274, 275, 276, 277, 278, 279, 280, 281, 282, 283, 284, 285, 286, 287, 288, 289, 290, 291, 292, 293, 294, 295, 296, 297, 298, 299, 300, 301, 302, 303, 304, 305, 306, 307, 308, 309, 310, 311, 312, 313, 314, 315, 316, 317, 318, 319, 320, 321, 322, 323, 324, 325, 326, 327, 328, 329, 330, 331, 332, 333, 334, 335, 336, 337, 338, 339, 340, 341, 342, 343, 344, 345, 346, 347, 348, 349, 350, 351, 352, 353, 354, 355, 356, 357, 358, 359, 360, 361, 362, 363, 364, 365, 366, 367, 368, 369, 370, 371, 372, 373],
      "AcquisitionTime": ["110915.897500", "110917.177500", "110918.457500", "110919.737500", "110921.017500", "110922.297500", "110923.577500", "110924.857500", "110926.137500", "110927.417500", "110928.697500", "110929.977500", "110931.257500", "110932.537500", "110933.817500", "110935.097500", "110936.377500", "110937.657500", "110938.937500", "110940.217500", "110941.497500", "110942.777500", "110944.057500", "110945.337500", "110946.617500", "110947.897500", "110949.177500", "110950.457500", "110951.737500", "110953.017500", "110954.297500", "110955.577500", "110956.857500", "110958.137500", "110959.417500", "111000.697500", "111001.977500", "111003.257500", "111004.537500", "111005.817500", "111007.097500", "111008.377500", "111009.657500", "111010.937500", "111012.217500", "111013.497500", "111014.777500", "111016.057500", "111017.337500", "111018.617500", "111019.897500", "111021.177500", "111022.457500", "111023.737500", "111025.017500", "111026.297500", "111027.577500", "111028.857500", "111030.137500", "111031.417500", "111032.697500", "111033.977500", "111035.257500", "111036.537500", "111037.817500", "111039.097500", "111040.377500", "111041.657500", "111042.937500", "111044.217500", "111045.497500", "111046.777500", "111048.057500", "111049.337500", "111050.617500", "111051.897500", "111053.177500", "111054.457500", "111055.737500", "111057.017500", "111058.297500", "111059.577500", "111100.857500", "111102.137500", "111103.417500", "111104.697500", "111105.977500", "111107.257500", "111108.537500", "111109.817500", "111111.097500", "111112.377500", "111113.657500", "111114.937500", "111116.217500", "111117.497500", "111118.777500", "111120.057500", "111121.337500", "111122.617500", "111123.897500", "111125.177500", "111126.457500", "111127.737500", "111129.017500", "111130.297500", "111131.577500", "111132.857500", "111134.137500", "111135.417500", "111136.697500", "111137.977500", "111139.257500", "111140.537500", "111141.817500", "111143.097500", "111144.377500", "111145.657500", "111146.937500", "111148.217500", "111149.497500", "111150.777500", "111152.057500", "111153.337500", "111154.617500", "111155.897500", "111157.177500", "111158.457500", "111159.737500", "111201.017500", "111202.297500", "111203.577500", "111204.857500", "111206.137500", "111207.417500", "111208.697500", "111209.977500", "111211.257500", "111212.537500", "111213.817500", "111215.097500", "111216.377500", "111217.657500", "111218.937500", "111220.217500", "111221.497500", "111222.777500", "111224.057500", "111225.337500", "111226.617500", "111227.897500", "111229.177500", "111230.457500", "111231.737500", "111233.017500", "111234.297500", "111235.577500", "111236.857500", "111238.137500", "111239.417500", "111240.697500", "111241.977500", "111243.257500", "111244.537500", "111245.817500", "111247.097500", "111248.377500", "111249.657500", "111250.937500", "111252.217500", "111253.497500", "111254.777500", "111256.057500", "111257.337500", "111258.617500", "111259.897500", "111301.177500", "111302.457500", "111303.737500", "111305.017500", "111306.297500", "111307.577500", "111308.857500", "111310.137500", "111311.417500", "111312.697500", "111313.977500", "111315.257500", "111316.537500", "111317.817500", "111319.097500", "111320.377500", "111321.657500", "111322.937500", "111324.217500", "111325.497500", "111326.777500", "111328.057500", "111329.337500", "111330.617500", "111331.897500", "111333.177500", "111334.457500", "111335.737500", "111337.017500", "111338.297500", "111339.577500", "111340.857500", "111342.137500", "111343.417500", "111344.697500", "111345.977500", "111347.257500", "111348.537500", "111349.817500", "111351.097500", "111352.377500", "111353.657500", "111354.937500", "111356.217500", "111357.497500", "111358.777500", "111400.057500", "111401.337500", "111402.617500", "111403.897500", "111405.177500", "111406.457500", "111407.737500", "111409.017500", "111410.297500", "111411.577500", "111412.857500", "111414.137500", "111415.417500", "111416.697500", "111417.977500", "111419.257500", "111420.537500", "111421.817500", "111423.097500", "111424.377500", "111425.657500", "111426.937500", "111428.217500", "111429.497500", "111430.777500", "111432.057500", "111433.337500", "111434.617500", "111435.897500", "111437.177500", "111438.457500", "111439.737500", "111441.017500", "111442.297500", "111443.577500", "111444.857500", "111446.137500", "111447.417500", "111448.697500", "111449.977500", "111451.257500", "111452.537500", "111453.817500", "111455.097500", "111456.377500", "111457.657500", "111458.937500", "111500.217500", "111501.497500", "111502.777500", "111504.057500", "111505.337500", "111506.617500", "111507.897500", "111509.177500", "111510.457500", "111511.737500", "111513.017500", "111514.297500", "111515.577500", "111516.857500", "111518.137500", "111519.417500", "111520.697500", "111521.977500", "111523.257500", "111524.537500", "111525.817500", "111527.097500", "111528.377500", "111529.657500", "111530.937500", "111532.217500", "111533.497500", "111534.777500", "111536.057500", "111537.337500", "111538.617500", "111539.897500", "111541.177500", "111542.457500", "111543.737500", "111545.017500", "111546.297500", "111547.577500", "111548.857500", "111550.137500", "111551.417500", "111552.697500", "111553.977500", "111555.257500", "111556.537500", "111557.817500", "111559.097500", "111600.377500", "111601.657500", "111602.937500", "111604.217500", "111605.497500", "111606.777500", "111608.057500", "111609.337500", "111610.617500", "111611.897500", "111613.177500", "111614.457500", "111615.737500", "111617.017500", "111618.297500", "111619.577500", "111620.857500", "111622.137500", "111623.417500", "111624.697500", "111625.977500", "111627.257500", "111628.537500", "111629.817500", "111631.097500", "111632.377500", "111633.657500", "111634.937500", "111636.217500", "111637.497500", "111638.777500", "111640.057500", "111641.337500", "111642.617500", "111643.897500", "111645.177500", "111646.457500", "111647.737500", "111649.017500", "111650.297500", "111651.577500", "111652.857500", "111654.137500", "111655.417500", "111656.697500", "111657.977500", "111659.257500", "111700.537500", "111701.817500", "111703.097500", "111704.377500", "111705.657500", "111706.937500", "111708.217500", "111709.497500", "111710.777500", "111712.057500"],
      "ContentTime": ["110957.922000", "110957.926000", "110957.929000", "110957.932000", "110957.935000", "110957.938000", "110957.941000", "110957.943000", "110957.946000", "110957.949000", "110957.952000", "110957.955000", "110957.958000", "110957.960000", "110957.963000", "110957.966000", "110957.969000", "110957.972000", "110957.975000", "110957.977000", "110957.980000", "110957.983000", "110957.986000", "110957.989000", "110957.992000", "110957.995000", "110957.998000", "110958.002000", "110958.004000", "110958.007000", "110958.010000", "110958.013000", "111037.917000", "111037.920000", "111037.923000", "111037.926000", "111037.929000", "111037.932000", "111037.935000", "111037.938000", "111037.941000", "111037.944000", "111037.947000", "111037.950000", "111037.952000", "111037.955000", "111037.958000", "111037.961000", "111037.964000", "111037.967000", "111037.970000", "111037.973000", "111037.976000", "111037.979000", "111037.982000", "111037.985000", "111037.988000", "111037.991000", "111037.994000", "111037.996000", "111038.000000", "111038.003000", "111038.006000", "111038.009000", "111117.917000", "111117.920000", "111117.923000", "111117.925000", "111117.929000", "111117.932000", "111117.934000", "111117.937000", "111117.940000", "111117.943000", "111117.946000", "111117.949000", "111117.967000", "111117.970000", "111117.973000", "111117.976000", "111117.978000", "111117.981000", "111117.984000", "111117.987000", "111117.990000", "111117.993000", "111117.996000", "111117.998000", "111118.003000", "111118.006000", "111118.008000", "111118.011000", "111118.014000", "111118.017000", "111118.020000", "111157.917000", "111157.920000", "111157.923000", "111157.926000", "111157.929000", "111157.932000", "111157.935000", "111157.938000", "111157.940000", "111157.943000", "111157.946000", "111157.949000", "111157.952000", "111157.955000", "111157.958000", "111157.961000", "111157.964000", "111157.966000", "111157.969000", "111157.972000", "111157.975000", "111157.978000", "111157.981000", "111157.984000", "111157.987000", "111157.989000", "111157.992000", "111157.995000", "111157.998000", "111158.002000", "111158.005000", "111237.917000", "111237.920000", "111237.923000", "111237.926000", "111237.929000", "111237.932000", "111237.935000", "111237.938000", "111237.940000", "111237.943000", "111237.946000", "111237.949000", "111237.952000", "111237.955000", "111237.958000", "111237.961000", "111237.964000", "111237.966000", "111237.969000", "111237.972000", "111237.975000", "111237.978000", "111237.981000", "111237.984000", "111237.987000", "111237.989000", "111237.992000", "111237.995000", "111237.998000", "111238.002000", "111238.005000", "111317.917000", "111317.920000", "111317.923000", "111317.926000", "111317.929000", "111317.931000", "111317.934000", "111317.937000", "111317.940000", "111317.943000", "111317.946000", "111317.949000", "111317.952000", "111317.955000", "111317.958000", "111317.960000", "111317.963000", "111317.966000", "111317.969000", "111317.972000", "111317.976000", "111317.979000", "111317.982000", "111317.985000", "111317.987000", "111317.990000", "111317.993000", "111317.996000", "111318.000000", "111318.002000", "111318.005000", "111318.008000", "111357.917000", "111357.920000", "111357.923000", "111357.926000", "111357.929000", "111357.932000", "111357.935000", "111357.938000", "111357.941000", "111357.944000", "111357.946000", "111357.949000", "111357.952000", "111357.955000", "111357.958000", "111357.961000", "111357.964000", "111357.967000", "111357.970000", "111357.972000", "111357.975000", "111357.978000", "111357.981000", "111357.984000", "111357.987000", "111357.990000", "111357.993000", "111357.995000", "111357.998000", "111358.002000", "111358.005000", "111437.918000", "111437.921000", "111437.924000", "111437.927000", "111437.930000", "111437.932000", "111437.935000", "111437.938000", "111437.941000", "111437.944000", "111437.947000", "111437.950000", "111437.953000", "111437.955000", "111437.958000", "111437.961000", "111437.964000", "111437.967000", "111437.970000", "111437.973000", "111437.975000", "111437.978000", "111437.981000", "111437.984000", "111437.987000", "111437.990000", "111437.993000", "111437.996000", "111437.998000", "111438.002000", "111438.005000", "111517.917000", "111517.920000", "111517.923000", "111517.926000", "111517.929000", "111517.932000", "111517.935000", "111517.938000", "111517.940000", "111517.953000", "111517.956000", "111517.959000", "111517.962000", "111517.965000", "111517.968000", "111517.971000", "111517.974000", "111517.990000", "111517.993000", "111518.002000", "111518.005000", "111518.008000", "111518.010000", "111518.013000", "111518.016000", "111518.019000", "111518.022000", "111518.025000", "111518.028000", "111518.031000", "111518.034000", "111537.917000", "111537.920000", "111537.923000", "111537.926000", "111537.929000", "111537.932000", "111537.934000", "111537.937000", "111537.940000", "111537.943000", "111537.946000", "111537.949000", "111537.952000", "111537.955000", "111537.958000", "111537.961000", "111617.917000", "111617.920000", "111617.923000", "111617.926000", "111617.929000", "111617.932000", "111617.935000", "111617.937000", "111617.940000", "111617.943000", "111617.946000", "111617.949000", "111617.952000", "111617.955000", "111617.957000", "111617.960000", "111617.963000", "111617.966000", "111617.969000", "111617.972000", "111617.975000", "111617.978000", "111617.980000", "111617.983000", "111617.986000", "111617.989000", "111617.992000", "111617.995000", "111617.997000", "111618.001000", "111618.004000", "111657.918000", "111657.921000", "111657.924000", "111657.927000", "111657.930000", "111657.932000", "111657.935000", "111657.938000", "111657.941000", "111657.944000", "111657.947000", "111657.950000", "111657.953000", "111657.955000", "111657.958000", "111657.961000", "111657.964000", "111657.967000", "111657.970000", "111657.973000", "111657.976000", "111657.978000", "111657.981000", "111657.984000", "111657.987000", "111657.990000", "111657.993000", "111657.996000", "111658.000000", "111658.002000", "111658.005000", "111713.413000", "111713.417000", "111713.419000", "111713.422000", "111713.425000", "111713.428000", "111713.431000", "111713.434000", "111713.437000", "111713.440000", "111713.442000", "111713.445000", "111713.448000"],
      "InstanceCreationTime": ["110957.922000", "110957.926000", "110957.929000", "110957.932000", "110957.935000", "110957.938000", "110957.941000", "110957.943000", "110957.946000", "110957.949000", "110957.952000", "110957.955000", "110957.958000", "110957.960000", "110957.963000", "110957.966000", "110957.969000", "110957.972000", "110957.975000", "110957.977000", "110957.980000", "110957.983000", "110957.986000", "110957.989000", "110957.992000", "110957.995000", "110957.998000", "110958.002000", "110958.004000", "110958.007000", "110958.010000", "110958.013000", "111037.917000", "111037.920000", "111037.923000", "111037.926000", "111037.929000", "111037.932000", "111037.935000", "111037.938000", "111037.941000", "111037.944000", "111037.947000", "111037.950000", "111037.952000", "111037.955000", "111037.958000", "111037.961000", "111037.964000", "111037.967000", "111037.970000", "111037.973000", "111037.976000", "111037.979000", "111037.982000", "111037.985000", "111037.988000", "111037.991000", "111037.994000", "111037.996000", "111038.000000", "111038.003000", "111038.006000", "111038.009000", "111117.917000", "111117.920000", "111117.923000", "111117.925000", "111117.929000", "111117.932000", "111117.934000", "111117.937000", "111117.940000", "111117.943000", "111117.946000", "111117.949000", "111117.967000", "111117.970000", "111117.973000", "111117.976000", "111117.978000", "111117.981000", "111117.984000", "111117.987000", "111117.990000", "111117.993000", "111117.996000", "111117.998000", "111118.003000", "111118.006000", "111118.008000", "111118.011000", "111118.014000", "111118.017000", "111118.020000", "111157.917000", "111157.920000", "111157.923000", "111157.926000", "111157.929000", "111157.932000", "111157.935000", "111157.938000", "111157.940000", "111157.943000", "111157.946000", "111157.949000", "111157.952000", "111157.955000", "111157.958000", "111157.961000", "111157.964000", "111157.966000", "111157.969000", "111157.972000", "111157.975000", "111157.978000", "111157.981000", "111157.984000", "111157.987000", "111157.989000", "111157.992000", "111157.995000", "111157.998000", "111158.002000", "111158.005000", "111237.917000", "111237.920000", "111237.923000", "111237.926000", "111237.929000", "111237.932000", "111237.935000", "111237.938000", "111237.940000", "111237.943000", "111237.946000", "111237.949000", "111237.952000", "111237.955000", "111237.958000", "111237.961000", "111237.964000", "111237.966000", "111237.969000", "111237.972000", "111237.975000", "111237.978000", "111237.981000", "111237.984000", "111237.987000", "111237.989000", "111237.992000", "111237.995000", "111237.998000", "111238.002000", "111238.005000", "111317.917000", "111317.920000", "111317.923000", "111317.926000", "111317.929000", "111317.931000", "111317.934000", "111317.937000", "111317.940000", "111317.943000", "111317.946000", "111317.949000", "111317.952000", "111317.955000", "111317.958000", "111317.960000", "111317.963000", "111317.966000", "111317.969000", "111317.972000", "111317.976000", "111317.979000", "111317.982000", "111317.985000", "111317.987000", "111317.990000", "111317.993000", "111317.996000", "111318.000000", "111318.002000", "111318.005000", "111318.008000", "111357.917000", "111357.920000", "111357.923000", "111357.926000", "111357.929000", "111357.932000", "111357.935000", "111357.938000", "111357.941000", "111357.944000", "111357.946000", "111357.949000", "111357.952000", "111357.955000", "111357.958000", "111357.961000", "111357.964000", "111357.967000", "111357.970000", "111357.972000", "111357.975000", "111357.978000", "111357.981000", "111357.984000", "111357.987000", "111357.990000", "111357.993000", "111357.995000", "111357.998000", "111358.002000", "111358.005000", "111437.918000", "111437.921000", "111437.924000", "111437.927000", "111437.930000", "111437.932000", "111437.935000", "111437.938000", "111437.941000", "111437.944000", "111437.947000", "111437.950000", "111437.953000", "111437.955000", "111437.958000", "111437.961000", "111437.964000", "111437.967000", "111437.970000", "111437.973000", "111437.975000", "111437.978000", "111437.981000", "111437.984000", "111437.987000", "111437.990000", "111437.993000", "111437.996000", "111437.998000", "111438.002000", "111438.005000", "111517.917000", "111517.920000", "111517.923000", "111517.926000", "111517.929000", "111517.932000", "111517.935000", "111517.938000", "111517.940000", "111517.953000", "111517.956000", "111517.959000", "111517.962000", "111517.965000", "111517.968000", "111517.971000", "111517.974000", "111517.990000", "111517.993000", "111518.002000", "111518.005000", "111518.008000", "111518.010000", "111518.013000", "111518.016000", "111518.019000", "111518.022000", "111518.025000", "111518.028000", "111518.031000", "111518.034000", "111537.917000", "111537.920000", "111537.923000", "111537.926000", "111537.929000", "111537.932000", "111537.934000", "111537.937000", "111537.940000", "111537.943000", "111537.946000", "111537.949000", "111537.952000", "111537.955000", "111537.958000", "111537.961000", "111617.917000", "111617.920000", "111617.923000", "111617.926000", "111617.929000", "111617.932000", "111617.935000", "111617.937000", "111617.940000", "111617.943000", "111617.946000", "111617.949000", "111617.952000", "111617.955000", "111617.957000", "111617.960000", "111617.963000", "111617.966000", "111617.969000", "111617.972000", "111617.975000", "111617.978000", "111617.980000", "111617.983000", "111617.986000", "111617.989000", "111617.992000", "111617.995000", "111617.997000", "111618.001000", "111618.004000", "111657.918000", "111657.921000", "111657.924000", "111657.927000", "111657.930000", "111657.932000", "111657.935000", "111657.938000", "111657.941000", "111657.944000", "111657.947000", "111657.950000", "111657.953000", "111657.955000", "111657.958000", "111657.961000", "111657.964000", "111657.967000", "111657.970000", "111657.973000", "111657.976000", "111657.978000", "111657.981000", "111657.984000", "111657.987000", "111657.990000", "111657.993000", "111657.996000", "111658.000000", "111658.002000", "111658.005000", "111713.413000", "111713.417000", "111713.419000", "111713.422000", "111713.425000", "111713.428000", "111713.431000", "111713.434000", "111713.437000", "111713.440000", "111713.442000", "111713.445000", "111713.448000"],
      "InstanceNumber": [1, 2, 3, 4, 5, 6, 7, 8, 9, 10, 11, 12, 13, 14, 15, 16, 17, 18, 19, 20, 21, 22, 23, 24, 25, 26, 27, 28, 29, 30, 31, 32, 33, 34, 35, 36, 37, 38, 39, 40, 41, 42, 43, 44, 45, 46, 47, 48, 49, 50, 51, 52, 53, 54, 55, 56, 57, 58, 59, 60, 61, 62, 63, 64, 65, 66, 67, 68, 69, 70, 71, 72, 73, 74, 75, 76, 77, 78, 79, 80, 81, 82, 83, 84, 85, 86, 87, 88, 89, 90, 91, 92, 93, 94, 95, 96, 97, 98, 99, 100, 101, 102, 103, 104, 105, 106, 107, 108, 109, 110, 111, 112, 113, 114, 115, 116, 117, 118, 119, 120, 121, 122, 123, 124, 125, 126, 127, 128, 129, 130, 131, 132, 133, 134, 135, 136, 137, 138, 139, 140, 141, 142, 143, 144, 145, 146, 147, 148, 149, 150, 151, 152, 153, 154, 155, 156, 157, 158, 159, 160, 161, 162, 163, 164, 165, 166, 167, 168, 169, 170, 171, 172, 173, 174, 175, 176, 177, 178, 179, 180, 181, 182, 183, 184, 185, 186, 187, 188, 189, 190, 191, 192, 193, 194, 195, 196, 197, 198, 199, 200, 201, 202, 203, 204, 205, 206, 207, 208, 209, 210, 211, 212, 213, 214, 215, 216, 217, 218, 219, 220, 221, 222, 223, 224, 225, 226, 227, 228, 229, 230, 231, 232, 233, 234, 235, 236, 237, 238, 239, 240, 241, 242, 243, 244, 245, 246, 247, 248, 249, 250, 251, 252, 253, 254, 255, 256, 257, 258, 259, 260, 261, 262, 263, 264, 265, 266, 267, 268, 269, 270, 271, 272, 273, 274, 275, 276, 277, 278, 279, 280, 281, 282, 283, 284, 285, 286, 287, 288, 289, 290, 291, 292, 293, 294, 295, 296, 297, 298, 299, 300, 301, 302, 303, 304, 305, 306, 307, 308, 309, 310, 311, 312, 313, 314, 315, 316, 317, 318, 319, 320, 321, 322, 323, 324, 325, 326, 327, 328, 329, 330, 331, 332, 333, 334, 335, 336, 337, 338, 339, 340, 341, 342, 343, 344, 345, 346, 347, 348, 349, 350, 351, 352, 353, 354, 355, 356, 357, 358, 359, 360, 361, 362, 363, 364, 365, 366, 367, 368, 369, 370, 371, 372, 373],
