{
  "AcquisitionMatrixPE": 108,
  "AcquisitionNumber": 1,
  "AcquisitionTime": "10:59:29.755000",
  "BandwidthPerPixelPhaseEncode": 15.964,
  "BaseResolution": 108,
  "BodyPartExamined": "BRAIN",
  "ConsistencyInfo": "N4_VE11C_LATEST_20160120",
  "ConversionSoftware": "dcm2niix",
  "ConversionSoftwareVersion": "v1.0.20180622 GCC6.3.0",
  "DerivedVendorReportedEchoSpacing": 0.000580009,
  "DeviceSerialNumber": "66054",
  "DwellTime": 2.1e-06,
  "EchoTime": 0.031,
  "EchoTrainLength": 95,
  "EffectiveEchoSpacing": 0.000580009,
  "FlipAngle": 64,
  "ImageOrientationPatientDICOM": [0.999495, -0.029625, -0.0114554, 0.0209365, 0.885698, -0.46379],
  "ImageType": [
    "ORIGINAL",
    "PRIMARY",
    "M",
    "ND",
    "MOSAIC"
],
  "InPlanePhaseEncodingDirectionDICOM": "COL",
  "InstitutionAddress": "Chemin_des_Mines_9_Geneve_District_CH_1211",
  "InstitutionName": "Fondation_Campus_Biotech_Geneva",
  "InstitutionalDepartmentName": "Department",
  "MRAcquisitionType": "2D",
  "MagneticFieldStrength": 3,
  "Manufacturer": "Siemens",
  "ManufacturersModelName": "Prisma",
  "Modality": "MR",
  "MultibandAccelerationFactor": 4,
  "PartialFourier": 0.875,
  "PatientPosition": "HFS",
  "PercentPhaseFOV": 100,
  "PhaseEncodingDirection": "j-",
  "PhaseEncodingSteps": 95,
  "PhaseResolution": 1,
  "PixelBandwidth": 2205,
  "ProcedureStepDescription": "J.DRM_Michael",
  "ProtocolName": "Run2_bold_s4_TR1.28",
  "PulseSequenceDetails": "%SiemensSeq%_ep2d_bold",
  "ReceiveCoilActiveElements": "HC1-7;NC1,2",
  "ReceiveCoilName": "HeadNeck_64",
  "ReconMatrixPE": 108,
  "RepetitionTime": 1.28,
  "SAR": 0.0677612,
  "ScanOptions": "PFP_FS",
  "ScanningSequence": "EP",
  "SequenceName": "_epfid2d1_108",
  "SequenceVariant": "SK",
  "SeriesDescription": "Run2_bold_s4_TR1.28",
  "SeriesNumber": 6,
  "ShimSetting": [-1262, -11667, 6218, 205, 149, -204, -173, 12],
  "SliceThickness": 2,
  "SliceTiming": [0.945, 0, 0.63, 0.08, 0.71, 0.1575, 0.7875, 0.2375, 0.8675, 0.395, 1.025, 0.4725, 1.1025, 0.5525, 1.1825, 0.315, 0.945, 0, 0.63, 0.08, 0.71, 0.1575, 0.7875, 0.2375, 0.8675, 0.395, 1.025, 0.4725, 1.1025, 0.5525, 1.1825, 0.315, 0.945, 0, 0.63, 0.08, 0.71, 0.1575, 0.7875, 0.2375, 0.8675, 0.395, 1.025, 0.4725, 1.1025, 0.5525, 1.1825, 0.315, 0.945, 0, 0.63, 0.08, 0.71, 0.1575, 0.7875, 0.2375, 0.8675, 0.395, 1.025, 0.4725, 1.1025, 0.5525, 1.1825, 0.315],
  "SoftwareVersions": "syngo_MR_E11",
  "SpacingBetweenSlices": 2,
  "StationName": "AWP66054",
  "TaskName": "main",
  "TotalReadoutTime": 0.0620609,
  "TxRefAmp": 237.101,
  "dcmmeta_affine": [
    [-1.9897363185882568, 0.04167907312512398, -0.04777156561613083, 103.42425537109375],
    [0.0589756965637207, 1.76319420337677, -0.9266330599784851, -59.932743072509766],
    [-0.02280467003583908, 0.9232863783836365, 1.7717418670654297, -102.53050994873047],
    [0.0, 0.0, 0.0, 1.0]
],
  "dcmmeta_reorient_transform": [
    [0.0, -1.0, 0.0, 107.0],
    [1.0, 0.0, 0.0, 0.0],
    [0.0, 0.0, 1.0, 0.0],
    [0.0, 0.0, 0.0, 1.0]
],
  "dcmmeta_shape": [108, 108, 64, 373],
  "dcmmeta_slice_dim": 2,
  "dcmmeta_version": 0.6,
  "global": {
    "const": {
      "AccessionNumber": "",
      "AcquisitionMatrix": [108, 0, 0, 108],
      "AngioFlag": "N",
      "BitsAllocated": 16,
      "BitsStored": 12,
      "BodyPartExamined": "BRAIN",
      "Columns": 864,
      "EchoNumbers": 1,
      "EchoTime": 31.0,
      "EchoTrainLength": 95,
      "FlipAngle": 64.0,
      "HighBit": 11,
      "ImageOrientationPatient": [0.99949543966732, -0.0296249997203, -0.0114553688639, 0.02093646383304, 0.88569755591064, -0.4637903663684],
      "ImagePositionPatient": [-875.75893803733, -772.92365192586, 353.88355405944],
      "ImageType": [
        "ORIGINAL",
        "PRIMARY",
        "M",
        "ND",
        "MOSAIC"
],
      "ImagedNucleus": "1H",
      "ImagingFrequency": 123.257602,
      "InPlanePhaseEncodingDirection": "COL",
      "MRAcquisitionType": "2D",
      "MagneticFieldStrength": 3.0,
      "Manufacturer": "SIEMENS",
      "ManufacturerModelName": "Prisma",
      "Modality": "MR",
      "NumberOfAverages": 1.0,
      "NumberOfPhaseEncodingSteps": 95,
      "PercentPhaseFieldOfView": 100.0,
      "PercentSampling": 100.0,
      "PerformedProcedureStepStartTime": "104634.439000",
      "PhotometricInterpretation": "MONOCHROME2",
      "PixelBandwidth": 2205.0,
      "PixelRepresentation": 0,
      "PixelSpacing": [1.990740776062, 1.990740776062],
      "PositionReferenceIndicator": "",
      "ProtocolName": "Run2_bold_s4_TR1.28",
      "RepetitionTime": 1280.0,
      "Rows": 864,
      "SAR": 0.06776119460214,
      "SamplesPerPixel": 1,
      "ScanOptions": [
        "PFP",
        "FS"
],
      "ScanningSequence": "EP",
      "SequenceName": "*epfid2d1_108",
      "SequenceVariant": "SK",
      "SeriesDescription": "Run2_bold_s4_TR1.28",
      "SeriesNumber": 6,
      "SeriesTime": "105957.776000",
      "SliceLocation": -65.531338035443,
      "SliceThickness": 2.0,
      "SmallestImagePixelValue": 0,
      "SoftwareVersions": "syngo MR E11",
      "SpacingBetweenSlices": 2.0000000302818,
      "SpecificCharacterSet": "ISO_IR 100",
      "StudyID": "1",
      "StudyTime": "104634.298000",
      "TransmitCoilName": "Body",
      "VariableFlipAngleFlag": "N",
      "WindowCenterWidthExplanation": "Algo1",
      "dBdt": 0.0},
    "slices": {}
  },
  "time": {
    "samples": {
      "AcquisitionNumber": [1, 2, 3, 4, 5, 6, 7, 8, 9, 10, 11, 12, 13, 14, 15, 16, 17, 18, 19, 20, 21, 22, 23, 24, 25, 26, 27, 28, 29, 30, 31, 32, 33, 34, 35, 36, 37, 38, 39, 40, 41, 42, 43, 44, 45, 46, 47, 48, 49, 50, 51, 52, 53, 54, 55, 56, 57, 58, 59, 60, 61, 62, 63, 64, 65, 66, 67, 68, 69, 70, 71, 72, 73, 74, 75, 76, 77, 78, 79, 80, 81, 82, 83, 84, 85, 86, 87, 88, 89, 90, 91, 92, 93, 94, 95, 96, 97, 98, 99, 100, 101, 102, 103, 104, 105, 106, 107, 108, 109, 110, 111, 112, 113, 114, 115, 116, 117, 118, 119, 120, 121, 122, 123, 124, 125, 126, 127, 128, 129, 130, 131, 132, 133, 134, 135, 136, 137, 138, 139, 140, 141, 142, 143, 144, 145, 146, 147, 148, 149, 150, 151, 152, 153, 154, 155, 156, 157, 158, 159, 160, 161, 162, 163, 164, 165, 166, 167, 168, 169, 170, 171, 172, 173, 174, 175, 176, 177, 178, 179, 180, 181, 182, 183, 184, 185, 186, 187, 188, 189, 190, 191, 192, 193, 194, 195, 196, 197, 198, 199, 200, 201, 202, 203, 204, 205, 206, 207, 208, 209, 210, 211, 212, 213, 214, 215, 216, 217, 218, 219, 220, 221, 222, 223, 224, 225, 226, 227, 228, 229, 230, 231, 232, 233, 234, 235, 236, 237, 238, 239, 240, 241, 242, 243, 244, 245, 246, 247, 248, 249, 250, 251, 252, 253, 254, 255, 256, 257, 258, 259, 260, 261, 262, 263, 264, 265, 266, 267, 268, 269, 270, 271, 272, 273, 274, 275, 276, 277, 278, 279, 280, 281, 282, 283, 284, 285, 286, 287, 288, 289, 290, 291, 292, 293, 294, 295, 296, 297, 298, 299, 300, 301, 302, 303, 304, 305, 306, 307, 308, 309, 310, 311, 312, 313, 314, 315, 316, 317, 318, 319, 320, 321, 322, 323, 324, 325, 326, 327, 328, 329, 330, 331, 332, 333, 334, 335, 336, 337, 338, 339, 340, 341, 342, 343, 344, 345, 346, 347, 348, 349, 350, 351, 352, 353, 354, 355, 356, 357, 358, 359, 360, 361, 362, 363, 364, 365, 366, 367, 368, 369, 370, 371, 372, 373],
      "AcquisitionTime": ["105929.755000", "105931.035000", "105932.315000", "105933.595000", "105934.875000", "105936.155000", "105937.435000", "105938.715000", "105939.995000", "105941.275000", "105942.555000", "105943.835000", "105945.115000", "105946.395000", "105947.675000", "105948.955000", "105950.235000", "105951.515000", "105952.795000", "105954.075000", "105955.355000", "105956.635000", "105957.915000", "105959.195000", "110000.475000", "110001.755000", "110003.035000", "110004.315000", "110005.595000", "110006.875000", "110008.155000", "110009.435000", "110010.715000", "110011.995000", "110013.275000", "110014.555000", "110015.835000", "110017.115000", "110018.395000", "110019.675000", "110020.955000", "110022.235000", "110023.515000", "110024.795000", "110026.075000", "110027.355000", "110028.635000", "110029.915000", "110031.195000", "110032.475000", "110033.755000", "110035.035000", "110036.315000", "110037.595000", "110038.875000", "110040.155000", "110041.435000", "110042.715000", "110043.995000", "110045.275000", "110046.555000", "110047.835000", "110049.115000", "110050.395000", "110051.675000", "110052.955000", "110054.235000", "110055.515000", "110056.795000", "110058.075000", "110059.355000", "110100.635000", "110101.915000", "110103.195000", "110104.475000", "110105.755000", "110107.035000", "110108.315000", "110109.595000", "110110.875000", "110112.155000", "110113.435000", "110114.715000", "110115.995000", "110117.275000", "110118.555000", "110119.835000", "110121.115000", "110122.395000", "110123.675000", "110124.955000", "110126.235000", "110127.515000", "110128.795000", "110130.075000", "110131.355000", "110132.635000", "110133.915000", "110135.195000", "110136.475000", "110137.755000", "110139.035000", "110140.315000", "110141.595000", "110142.875000", "110144.155000", "110145.435000", "110146.715000", "110147.995000", "110149.275000", "110150.555000", "110151.835000", "110153.115000", "110154.395000", "110155.675000", "110156.955000", "110158.235000", "110159.515000", "110200.795000", "110202.075000", "110203.355000", "110204.635000", "110205.915000", "110207.195000", "110208.475000", "110209.755000", "110211.035000", "110212.315000", "110213.595000", "110214.875000", "110216.155000", "110217.435000", "110218.715000", "110219.995000", "110221.275000", "110222.555000", "110223.835000", "110225.115000", "110226.395000", "110227.675000", "110228.955000", "110230.235000", "110231.515000", "110232.795000", "110234.075000", "110235.355000", "110236.635000", "110237.915000", "110239.195000", "110240.475000", "110241.755000", "110243.035000", "110244.315000", "110245.595000", "110246.875000", "110248.155000", "110249.435000", "110250.715000", "110251.995000", "110253.275000", "110254.555000", "110255.835000", "110257.115000", "110258.395000", "110259.675000", "110300.955000", "110302.235000", "110303.515000", "110304.795000", "110306.075000", "110307.355000", "110308.635000", "110309.915000", "110311.195000", "110312.475000", "110313.755000", "110315.035000", "110316.315000", "110317.595000", "110318.875000", "110320.155000", "110321.435000", "110322.715000", "110323.995000", "110325.275000", "110326.555000", "110327.835000", "110329.115000", "110330.395000", "110331.675000", "110332.955000", "110334.235000", "110335.515000", "110336.795000", "110338.075000", "110339.355000", "110340.635000", "110341.915000", "110343.195000", "110344.475000", "110345.755000", "110347.035000", "110348.315000", "110349.595000", "110350.875000", "110352.155000", "110353.435000", "110354.715000", "110355.995000", "110357.275000", "110358.555000", "110359.835000", "110401.115000", "110402.395000", "110403.675000", "110404.955000", "110406.235000", "110407.515000", "110408.795000", "110410.075000", "110411.355000", "110412.635000", "110413.915000", "110415.195000", "110416.475000", "110417.755000", "110419.035000", "110420.315000", "110421.595000", "110422.875000", "110424.155000", "110425.435000", "110426.715000", "110427.995000", "110429.275000", "110430.555000", "110431.835000", "110433.115000", "110434.395000", "110435.675000", "110436.955000", "110438.235000", "110439.515000", "110440.795000", "110442.075000", "110443.355000", "110444.635000", "110445.915000", "110447.195000", "110448.475000", "110449.755000", "110451.035000", "110452.315000", "110453.595000", "110454.875000", "110456.155000", "110457.435000", "110458.715000", "110459.995000", "110501.275000", "110502.555000", "110503.835000", "110505.115000", "110506.395000", "110507.675000", "110508.955000", "110510.235000", "110511.515000", "110512.795000", "110514.075000", "110515.355000", "110516.635000", "110517.915000", "110519.195000", "110520.475000", "110521.755000", "110523.035000", "110524.315000", "110525.595000", "110526.875000", "110528.155000", "110529.435000", "110530.715000", "110531.995000", "110533.275000", "110534.555000", "110535.835000", "110537.115000", "110538.395000", "110539.675000", "110540.955000", "110542.235000", "110543.515000", "110544.795000", "110546.075000", "110547.355000", "110548.635000", "110549.915000", "110551.195000", "110552.475000", "110553.755000", "110555.035000", "110556.315000", "110557.595000", "110558.875000", "110600.155000", "110601.435000", "110602.715000", "110603.995000", "110605.275000", "110606.555000", "110607.835000", "110609.115000", "110610.395000", "110611.675000", "110612.955000", "110614.235000", "110615.515000", "110616.795000", "110618.075000", "110619.355000", "110620.635000", "110621.915000", "110623.195000", "110624.475000", "110625.755000", "110627.035000", "110628.315000", "110629.595000", "110630.875000", "110632.155000", "110633.435000", "110634.715000", "110635.995000", "110637.275000", "110638.555000", "110639.835000", "110641.115000", "110642.395000", "110643.675000", "110644.955000", "110646.235000", "110647.515000", "110648.795000", "110650.075000", "110651.355000", "110652.635000", "110653.915000", "110655.195000", "110656.475000", "110657.755000", "110659.035000", "110700.315000", "110701.595000", "110702.875000", "110704.155000", "110705.435000", "110706.715000", "110707.995000", "110709.275000", "110710.555000", "110711.835000", "110713.115000", "110714.395000", "110715.675000", "110716.955000", "110718.235000", "110719.515000", "110720.795000", "110722.075000", "110723.355000", "110724.635000", "110725.915000"],
      "ContentTime": ["105957.780000", "105957.783000", "105957.786000", "105957.789000", "105957.792000", "105957.795000", "105957.798000", "105957.801000", "105957.804000", "105957.807000", "105957.809000", "105957.812000", "105957.815000", "105957.818000", "105957.830000", "105957.833000", "105957.841000", "105957.849000", "105957.852000", "105957.855000", "105957.858000", "110037.776000", "110037.779000", "110037.782000", "110037.785000", "110037.788000", "110037.791000", "110037.795000", "110037.798000", "110037.801000", "110037.804000", "110037.807000", "110037.809000", "110037.812000", "110037.815000", "110037.818000", "110037.821000", "110037.824000", "110037.827000", "110037.830000", "110037.833000", "110037.836000", "110037.839000", "110037.841000", "110037.844000", "110037.847000", "110037.850000", "110037.853000", "110037.856000", "110037.859000", "110037.861000", "110037.864000", "110037.867000", "110117.775000", "110117.778000", "110117.781000", "110117.784000", "110117.787000", "110117.789000", "110117.792000", "110117.795000", "110117.798000", "110117.801000", "110117.804000", "110117.807000", "110117.810000", "110117.813000", "110117.816000", "110117.819000", "110117.821000", "110117.824000", "110117.827000", "110117.830000", "110117.833000", "110117.836000", "110117.839000", "110117.842000", "110117.844000", "110117.847000", "110117.850000", "110117.853000", "110117.856000", "110117.859000", "110117.861000", "110157.775000", "110157.778000", "110157.781000", "110157.784000", "110157.786000", "110157.789000", "110157.792000", "110157.795000", "110157.798000", "110157.801000", "110157.804000", "110157.806000", "110157.809000", "110157.812000", "110157.815000", "110157.818000", "110157.821000", "110157.824000", "110157.827000", "110157.829000", "110157.832000", "110157.835000", "110157.838000", "110157.841000", "110157.844000", "110157.846000", "110157.849000", "110157.852000", "110157.855000", "110157.858000", "110157.861000", "110237.775000", "110237.844000", "110237.847000", "110237.853000", "110237.856000", "110237.859000", "110237.862000", "110237.865000", "110237.868000", "110237.871000", "110237.874000", "110237.877000", "110237.880000", "110237.883000", "110237.886000", "110237.888000", "110237.892000", "110237.896000", "110237.899000", "110237.902000", "110237.904000", "110237.907000", "110237.910000", "110237.913000", "110237.916000", "110237.919000", "110237.922000", "110237.925000", "110237.928000", "110237.930000", "110237.933000", "110317.776000", "110317.779000", "110317.782000", "110317.785000", "110317.787000", "110317.790000", "110317.793000", "110317.811000", "110317.814000", "110317.817000", "110317.820000", "110317.823000", "110317.826000", "110317.829000", "110317.831000", "110317.834000", "110317.837000", "110317.840000", "110317.843000", "110317.846000", "110317.849000", "110317.852000", "110317.855000", "110317.858000", "110317.861000", "110317.863000", "110317.867000", "110317.869000", "110317.872000", "110317.875000", "110317.878000", "110317.881000", "110357.775000", "110357.778000", "110357.781000", "110357.784000", "110357.787000", "110357.789000", "110357.792000", "110357.795000", "110357.798000", "110357.801000", "110357.804000", "110357.806000", "110357.810000", "110357.813000", "110357.816000", "110357.818000", "110357.821000", "110357.824000", "110357.827000", "110357.830000", "110357.833000", "110357.836000", "110357.839000", "110357.841000", "110357.844000", "110357.847000", "110357.850000", "110357.853000", "110357.856000", "110357.858000", "110357.861000", "110437.775000", "110437.778000", "110437.781000", "110437.784000", "110437.787000", "110437.789000", "110437.792000", "110437.795000", "110437.798000", "110437.801000", "110437.804000", "110437.807000", "110437.809000", "110437.812000", "110437.815000", "110437.818000", "110437.821000", "110437.824000", "110437.827000", "110437.829000", "110437.832000", "110437.835000", "110437.838000", "110437.841000", "110437.844000", "110437.847000", "110437.850000", "110437.853000", "110437.856000", "110437.859000", "110437.862000", "110517.776000", "110517.789000", "110517.792000", "110517.795000", "110517.798000", "110517.801000", "110517.804000", "110517.807000", "110517.809000", "110517.812000", "110517.815000", "110517.818000", "110517.821000", "110517.824000", "110517.827000", "110517.830000", "110517.832000", "110517.835000", "110517.838000", "110517.841000", "110517.844000", "110517.847000", "110517.850000", "110517.852000", "110517.855000", "110517.858000", "110517.861000", "110517.864000", "110517.876000", "110517.879000", "110517.882000", "110557.775000", "110557.810000", "110557.813000", "110557.816000", "110557.819000", "110557.822000", "110557.824000", "110557.827000", "110557.830000", "110557.833000", "110557.836000", "110557.839000", "110557.842000", "110557.845000", "110557.847000", "110557.850000", "110557.853000", "110557.856000", "110557.859000", "110557.862000", "110557.864000", "110557.867000", "110557.870000", "110557.873000", "110557.876000", "110557.879000", "110557.882000", "110557.885000", "110557.888000", "110557.890000", "110557.893000", "110557.896000", "110637.775000", "110637.778000", "110637.781000", "110637.784000", "110637.787000", "110637.790000", "110637.792000", "110637.795000", "110637.798000", "110637.801000", "110637.804000", "110637.807000", "110637.810000", "110637.820000", "110637.822000", "110637.825000", "110637.828000", "110637.831000", "110637.834000", "110637.837000", "110637.840000", "110637.843000", "110637.846000", "110637.849000", "110637.851000", "110637.854000", "110637.857000", "110637.860000", "110637.863000", "110637.866000", "110637.869000", "110717.775000", "110717.778000", "110717.781000", "110717.784000", "110717.787000", "110717.790000", "110717.792000", "110717.795000", "110717.798000", "110717.801000", "110717.804000", "110717.807000", "110717.810000", "110717.812000", "110717.815000", "110717.818000", "110717.821000", "110717.824000", "110717.827000", "110717.829000", "110717.832000", "110717.835000", "110717.838000", "110717.841000", "110717.844000", "110717.847000", "110717.850000", "110717.853000", "110717.855000", "110717.858000", "110717.861000", "110727.170000", "110727.173000", "110727.176000", "110727.179000", "110727.182000", "110727.186000", "110727.189000", "110727.192000"],
      "InstanceCreationTime": ["105957.780000", "105957.783000", "105957.786000", "105957.789000", "105957.792000", "105957.795000", "105957.798000", "105957.801000", "105957.804000", "105957.807000", "105957.809000", "105957.812000", "105957.815000", "105957.818000", "105957.830000", "105957.833000", "105957.841000", "105957.849000", "105957.852000", "105957.855000", "105957.858000", "110037.776000", "110037.779000", "110037.782000", "110037.785000", "110037.788000", "110037.791000", "110037.795000", "110037.798000", "110037.801000", "110037.804000", "110037.807000", "110037.809000", "110037.812000", "110037.815000", "110037.818000", "110037.821000", "110037.824000", "110037.827000", "110037.830000", "110037.833000", "110037.836000", "110037.839000", "110037.841000", "110037.844000", "110037.847000", "110037.850000", "110037.853000", "110037.856000", "110037.859000", "110037.861000", "110037.864000", "110037.867000", "110117.775000", "110117.778000", "110117.781000", "110117.784000", "110117.787000", "110117.789000", "110117.792000", "110117.795000", "110117.798000", "110117.801000", "110117.804000", "110117.807000", "110117.810000", "110117.813000", "110117.816000", "110117.819000", "110117.821000", "110117.824000", "110117.827000", "110117.830000", "110117.833000", "110117.836000", "110117.839000", "110117.842000", "110117.844000", "110117.847000", "110117.850000", "110117.853000", "110117.856000", "110117.859000", "110117.861000", "110157.775000", "110157.778000", "110157.781000", "110157.784000", "110157.786000", "110157.789000", "110157.792000", "110157.795000", "110157.798000", "110157.801000", "110157.804000", "110157.806000", "110157.809000", "110157.812000", "110157.815000", "110157.818000", "110157.821000", "110157.824000", "110157.827000", "110157.829000", "110157.832000", "110157.835000", "110157.838000", "110157.841000", "110157.844000", "110157.846000", "110157.849000", "110157.852000", "110157.855000", "110157.858000", "110157.861000", "110237.775000", "110237.844000", "110237.847000", "110237.853000", "110237.856000", "110237.859000", "110237.862000", "110237.865000", "110237.868000", "110237.871000", "110237.874000", "110237.877000", "110237.880000", "110237.883000", "110237.886000", "110237.888000", "110237.892000", "110237.896000", "110237.899000", "110237.902000", "110237.904000", "110237.907000", "110237.910000", "110237.913000", "110237.916000", "110237.919000", "110237.922000", "110237.925000", "110237.928000", "110237.930000", "110237.933000", "110317.776000", "110317.779000", "110317.782000", "110317.785000", "110317.787000", "110317.790000", "110317.793000", "110317.811000", "110317.814000", "110317.817000", "110317.820000", "110317.823000", "110317.826000", "110317.829000", "110317.831000", "110317.834000", "110317.837000", "110317.840000", "110317.843000", "110317.846000", "110317.849000", "110317.852000", "110317.855000", "110317.858000", "110317.861000", "110317.863000", "110317.867000", "110317.869000", "110317.872000", "110317.875000", "110317.878000", "110317.881000", "110357.775000", "110357.778000", "110357.781000", "110357.784000", "110357.787000", "110357.789000", "110357.792000", "110357.795000", "110357.798000", "110357.801000", "110357.804000", "110357.806000", "110357.810000", "110357.813000", "110357.816000", "110357.818000", "110357.821000", "110357.824000", "110357.827000", "110357.830000", "110357.833000", "110357.836000", "110357.839000", "110357.841000", "110357.844000", "110357.847000", "110357.850000", "110357.853000", "110357.856000", "110357.858000", "110357.861000", "110437.775000", "110437.778000", "110437.781000", "110437.784000", "110437.787000", "110437.789000", "110437.792000", "110437.795000", "110437.798000", "110437.801000", "110437.804000", "110437.807000", "110437.809000", "110437.812000", "110437.815000", "110437.818000", "110437.821000", "110437.824000", "110437.827000", "110437.829000", "110437.832000", "110437.835000", "110437.838000", "110437.841000", "110437.844000", "110437.847000", "110437.850000", "110437.853000", "110437.856000", "110437.859000", "110437.862000", "110517.776000", "110517.789000", "110517.792000", "110517.795000", "110517.798000", "110517.801000", "110517.804000", "110517.807000", "110517.809000", "110517.812000", "110517.815000", "110517.818000", "110517.821000", "110517.824000", "110517.827000", "110517.830000", "110517.832000", "110517.835000", "110517.838000", "110517.841000", "110517.844000", "110517.847000", "110517.850000", "110517.852000", "110517.855000", "110517.858000", "110517.861000", "110517.864000", "110517.876000", "110517.879000", "110517.882000", "110557.775000", "110557.810000", "110557.813000", "110557.816000", "110557.819000", "110557.822000", "110557.824000", "110557.827000", "110557.830000", "110557.833000", "110557.836000", "110557.839000", "110557.842000", "110557.845000", "110557.847000", "110557.850000", "110557.853000", "110557.856000", "110557.859000", "110557.862000", "110557.864000", "110557.867000", "110557.870000", "110557.873000", "110557.876000", "110557.879000", "110557.882000", "110557.885000", "110557.888000", "110557.890000", "110557.893000", "110557.896000", "110637.775000", "110637.778000", "110637.781000", "110637.784000", "110637.787000", "110637.790000", "110637.792000", "110637.795000", "110637.798000", "110637.801000", "110637.804000", "110637.807000", "110637.810000", "110637.820000", "110637.822000", "110637.825000", "110637.828000", "110637.831000", "110637.834000", "110637.837000", "110637.840000", "110637.843000", "110637.846000", "110637.849000", "110637.851000", "110637.854000", "110637.857000", "110637.860000", "110637.863000", "110637.866000", "110637.869000", "110717.775000", "110717.778000", "110717.781000", "110717.784000", "110717.787000", "110717.790000", "110717.792000", "110717.795000", "110717.798000", "110717.801000", "110717.804000", "110717.807000", "110717.810000", "110717.812000", "110717.815000", "110717.818000", "110717.821000", "110717.824000", "110717.827000", "110717.829000", "110717.832000", "110717.835000", "110717.838000", "110717.841000", "110717.844000", "110717.847000", "110717.850000", "110717.853000", "110717.855000", "110717.858000", "110717.861000", "110727.170000", "110727.173000", "110727.176000", "110727.179000", "110727.182000", "110727.186000", "110727.189000", "110727.192000"],
      "InstanceNumber": [1, 2, 3, 4, 5, 6, 7, 8, 9, 10, 11, 12, 13, 14, 15, 16, 17, 18, 19, 20, 21, 22, 23, 24, 25, 26, 27, 28, 29, 30, 31, 32, 33, 34, 35, 36, 37, 38, 39, 40, 41, 42, 43, 44, 45, 46, 47, 48, 49, 50, 51, 52, 53, 54, 55, 56, 57, 58, 59, 60, 61, 62, 63, 64, 65, 66, 67, 68, 69, 70, 71, 72, 73, 74, 75, 76, 77, 78, 79, 80, 81, 82, 83, 84, 85, 86, 87, 88, 89, 90, 91, 92, 93, 94, 95, 96, 97, 98, 99, 100, 101, 102, 103, 104, 105, 106, 107, 108, 109, 110, 111, 112, 113, 114, 115, 116, 117, 118, 119, 120, 121, 122, 123, 124, 125, 126, 127, 128, 129, 130, 131, 132, 133, 134, 135, 136, 137, 138, 139, 140, 141, 142, 143, 144, 145, 146, 147, 148, 149, 150, 151, 152, 153, 154, 155, 156, 157, 158, 159, 160, 161, 162, 163, 164, 165, 166, 167, 168, 169, 170, 171, 172, 173, 174, 175, 176, 177, 178, 179, 180, 181, 182, 183, 184, 185, 186, 187, 188, 189, 190, 191, 192, 193, 194, 195, 196, 197, 198, 199, 200, 201, 202, 203, 204, 205, 206, 207, 208, 209, 210, 211, 212, 213, 214, 215, 216, 217, 218, 219, 220, 221, 222, 223, 224, 225, 226, 227, 228, 229, 230, 231, 232, 233, 234, 235, 236, 237, 238, 239, 240, 241, 242, 243, 244, 245, 246, 247, 248, 249, 250, 251, 252, 253, 254, 255, 256, 257, 258, 259, 260, 261, 262, 263, 264, 265, 266, 267, 268, 269, 270, 271, 272, 273, 274, 275, 276, 277, 278, 279, 280, 281, 282, 283, 284, 285, 286, 287, 288, 289, 290, 291, 292, 293, 294, 295, 296, 297, 298, 299, 300, 301, 302, 303, 304, 305, 306, 307, 308, 309, 310, 311, 312, 313, 314, 315, 316, 317, 318, 319, 320, 321, 322, 323, 324, 325, 326, 327, 328, 329, 330, 331, 332, 333, 334, 335, 336, 337, 338, 339, 340, 341, 342, 343, 344, 345, 346, 347, 348, 349, 350, 351, 352, 353, 354, 355, 356, 357, 358, 359, 360, 361, 362, 363, 364, 365, 366, 367, 368, 369, 370, 371, 372, 373],
