{
  "AcquisitionMatrixPE": 108,
  "AcquisitionNumber": 1,
  "AcquisitionTime": "11:20:45.622500",
  "BandwidthPerPixelPhaseEncode": 15.964,
  "BaseResolution": 108,
  "BodyPartExamined": "BRAIN",
  "ConsistencyInfo": "N4_VE11C_LATEST_20160120",
  "ConversionSoftware": "dcm2niix",
  "ConversionSoftwareVersion": "v1.0.20180622 GCC6.3.0",
  "DerivedVendorReportedEchoSpacing": 0.000580009,
  "DeviceSerialNumber": "66054",
  "DwellTime": 2.1e-06,
  "EchoTime": 0.031,
  "EchoTrainLength": 95,
  "EffectiveEchoSpacing": 0.000580009,
  "FlipAngle": 64,
  "ImageOrientationPatientDICOM": [0.99884, 0.0369958, 0.0308262, -0.0209227, 0.90997, -0.414147],
  "ImageType": [
    "ORIGINAL",
    "PRIMARY",
    "M",
    "ND",
    "MOSAIC"
],
  "InPlanePhaseEncodingDirectionDICOM": "COL",
  "InstitutionAddress": "Chemin_des_Mines_9_Geneve_District_CH_1211",
  "InstitutionName": "Fondation_Campus_Biotech_Geneva",
  "InstitutionalDepartmentName": "Department",
  "MRAcquisitionType": "2D",
  "MagneticFieldStrength": 3,
  "Manufacturer": "Siemens",
  "ManufacturersModelName": "Prisma",
  "Modality": "MR",
  "MultibandAccelerationFactor": 4,
  "PartialFourier": 0.875,
  "PatientPosition": "HFS",
  "PercentPhaseFOV": 100,
  "PhaseEncodingDirection": "j-",
  "PhaseEncodingSteps": 95,
  "PhaseResolution": 1,
  "PixelBandwidth": 2205,
  "ProcedureStepDescription": "J.DRM_Michael",
  "ProtocolName": "Run1_bold_s4_TR1.28",
  "PulseSequenceDetails": "%SiemensSeq%_ep2d_bold",
  "ReceiveCoilActiveElements": "HC1-7;NC1,2",
  "ReceiveCoilName": "HeadNeck_64",
  "ReconMatrixPE": 108,
  "RepetitionTime": 1.28,
  "SAR": 0.0740349,
  "ScanOptions": "PFP_FS",
  "ScanningSequence": "EP",
  "SequenceName": "_epfid2d1_108",
  "SequenceVariant": "SK",
  "SeriesDescription": "Run1_bold_s4_TR1.28",
  "SeriesNumber": 5,
  "ShimSetting": [-1244, -11664, 6445, 611, 127, 47, 123, 70],
  "SliceThickness": 2,
  "SliceTiming": [0.945, 0, 0.63, 0.0775, 0.7075, 0.1575, 0.7875, 0.235, 0.865, 0.3925, 1.0225, 0.4725, 1.1025, 0.55, 1.18, 0.315, 0.945, 0, 0.63, 0.0775, 0.7075, 0.1575, 0.7875, 0.235, 0.865, 0.3925, 1.0225, 0.4725, 1.1025, 0.55, 1.18, 0.315, 0.945, 0, 0.63, 0.0775, 0.7075, 0.1575, 0.7875, 0.235, 0.865, 0.3925, 1.0225, 0.4725, 1.1025, 0.55, 1.18, 0.315, 0.945, 0, 0.63, 0.0775, 0.7075, 0.1575, 0.7875, 0.235, 0.865, 0.3925, 1.0225, 0.4725, 1.1025, 0.55, 1.18, 0.315],
  "SoftwareVersions": "syngo_MR_E11",
  "SpacingBetweenSlices": 2,
  "StationName": "AWP66054",
  "TaskName": "main",
  "TotalReadoutTime": 0.0620609,
  "TxRefAmp": 274.915,
  "dcmmeta_affine": [
    [-1.9884312152862549, -0.041651759296655655, 0.08674513548612595, 105.445068359375],
    [-0.07364898920059204, 1.8115137815475464, -0.826042115688324, -65.7801742553711],
    [0.06136695295572281, 0.8244583606719971, 1.8193761110305786, -93.45880126953125],
    [0.0, 0.0, 0.0, 1.0]
],
  "dcmmeta_reorient_transform": [
    [0.0, -1.0, 0.0, 107.0],
    [1.0, 0.0, 0.0, 0.0],
    [0.0, 0.0, 1.0, 0.0],
    [0.0, 0.0, 0.0, 1.0]
],
  "dcmmeta_shape": [108, 108, 64, 373],
  "dcmmeta_slice_dim": 2,
  "dcmmeta_version": 0.6,
  "global": {
    "const": {
      "AccessionNumber": "",
      "AcquisitionMatrix": [108, 0, 0, 108],
      "AngioFlag": "N",
      "BitsAllocated": 16,
      "BitsStored": 12,
      "BodyPartExamined": "BRAIN",
      "Columns": 864,
      "EchoNumbers": 1,
      "EchoTime": 31.0,
      "EchoTrainLength": 95,
      "FlipAngle": 64.0,
      "HighBit": 11,
      "ImageOrientationPatient": [0.99883985658735, 0.0369957691015, 0.03082618953337, -0.0209227441838, 0.90996972521468, -0.4141465175135],
      "ImagePositionPatient": [-836.87097381073, -840.64335507965, 283.20679177542],
      "ImageType": [
        "ORIGINAL",
        "PRIMARY",
        "M",
        "ND",
        "MOSAIC"
],
      "ImagedNucleus": "1H",
      "ImagingFrequency": 123.257378,
      "InPlanePhaseEncodingDirection": "COL",
      "MRAcquisitionType": "2D",
      "MagneticFieldStrength": 3.0,
      "Manufacturer": "SIEMENS",
      "ManufacturerModelName": "Prisma",
      "Modality": "MR",
      "NumberOfAverages": 1.0,
      "NumberOfPhaseEncodingSteps": 95,
      "PercentPhaseFieldOfView": 100.0,
      "PercentSampling": 100.0,
      "PerformedProcedureStepStartTime": "110853.972000",
      "PhotometricInterpretation": "MONOCHROME2",
      "PixelBandwidth": 2205.0,
      "PixelRepresentation": 0,
      "PixelSpacing": [1.990740776062, 1.990740776062],
      "PositionReferenceIndicator": "",
      "ProtocolName": "Run1_bold_s4_TR1.28",
      "RepetitionTime": 1280.0,
      "Rows": 864,
      "SAR": 0.07403487852588,
      "SamplesPerPixel": 1,
      "ScanOptions": [
        "PFP",
        "FS"
],
      "ScanningSequence": "EP",
      "SequenceName": "*epfid2d1_108",
      "SequenceVariant": "SK",
      "SeriesDescription": "Run1_bold_s4_TR1.28",
      "SeriesNumber": 5,
      "SeriesTime": "112126.937000",
      "SliceLocation": -53.276339334504,
      "SliceThickness": 2.0,
      "SmallestImagePixelValue": 0,
      "SoftwareVersions": "syngo MR E11",
      "SpacingBetweenSlices": 1.9999999297645,
      "SpecificCharacterSet": "ISO_IR 100",
      "StudyID": "1",
      "StudyTime": "110853.903000",
      "TransmitCoilName": "Body",
      "VariableFlipAngleFlag": "N",
      "WindowCenterWidthExplanation": "Algo1",
      "dBdt": 0.0},
    "slices": {}
  },
  "time": {
    "samples": {
      "AcquisitionNumber": [1, 2, 3, 4, 5, 6, 7, 8, 9, 10, 11, 12, 13, 14, 15, 16, 17, 18, 19, 20, 21, 22, 23, 24, 25, 26, 27, 28, 29, 30, 31, 32, 33, 34, 35, 36, 37, 38, 39, 40, 41, 42, 43, 44, 45, 46, 47, 48, 49, 50, 51, 52, 53, 54, 55, 56, 57, 58, 59, 60, 61, 62, 63, 64, 65, 66, 67, 68, 69, 70, 71, 72, 73, 74, 75, 76, 77, 78, 79, 80, 81, 82, 83, 84, 85, 86, 87, 88, 89, 90, 91, 92, 93, 94, 95, 96, 97, 98, 99, 100, 101, 102, 103, 104, 105, 106, 107, 108, 109, 110, 111, 112, 113, 114, 115, 116, 117, 118, 119, 120, 121, 122, 123, 124, 125, 126, 127, 128, 129, 130, 131, 132, 133, 134, 135, 136, 137, 138, 139, 140, 141, 142, 143, 144, 145, 146, 147, 148, 149, 150, 151, 152, 153, 154, 155, 156, 157, 158, 159, 160, 161, 162, 163, 164, 165, 166, 167, 168, 169, 170, 171, 172, 173, 174, 175, 176, 177, 178, 179, 180, 181, 182, 183, 184, 185, 186, 187, 188, 189, 190, 191, 192, 193, 194, 195, 196, 197, 198, 199, 200, 201, 202, 203, 204, 205, 206, 207, 208, 209, 210, 211, 212, 213, 214, 215, 216, 217, 218, 219, 220, 221, 222, 223, 224, 225, 226, 227, 228, 229, 230, 231, 232, 233, 234, 235, 236, 237, 238, 239, 240, 241, 242, 243, 244, 245, 246, 247, 248, 249, 250, 251, 252, 253, 254, 255, 256, 257, 258, 259, 260, 261, 262, 263, 264, 265, 266, 267, 268, 269, 270, 271, 272, 273, 274, 275, 276, 277, 278, 279, 280, 281, 282, 283, 284, 285, 286, 287, 288, 289, 290, 291, 292, 293, 294, 295, 296, 297, 298, 299, 300, 301, 302, 303, 304, 305, 306, 307, 308, 309, 310, 311, 312, 313, 314, 315, 316, 317, 318, 319, 320, 321, 322, 323, 324, 325, 326, 327, 328, 329, 330, 331, 332, 333, 334, 335, 336, 337, 338, 339, 340, 341, 342, 343, 344, 345, 346, 347, 348, 349, 350, 351, 352, 353, 354, 355, 356, 357, 358, 359, 360, 361, 362, 363, 364, 365, 366, 367, 368, 369, 370, 371, 372, 373],
      "AcquisitionTime": ["112045.622500", "112046.902500", "112048.182500", "112049.462500", "112050.742500", "112052.022500", "112053.302500", "112054.582500", "112055.862500", "112057.142500", "112058.422500", "112059.702500", "112100.982500", "112102.262500", "112103.542500", "112104.822500", "112106.102500", "112107.382500", "112108.662500", "112109.942500", "112111.222500", "112112.502500", "112113.782500", "112115.062500", "112116.342500", "112117.622500", "112118.902500", "112120.182500", "112121.462500", "112122.742500", "112124.022500", "112125.302500", "112126.582500", "112127.862500", "112129.142500", "112130.422500", "112131.702500", "112132.982500", "112134.262500", "112135.542500", "112136.822500", "112138.102500", "112139.382500", "112140.662500", "112141.942500", "112143.222500", "112144.502500", "112145.782500", "112147.062500", "112148.342500", "112149.622500", "112150.902500", "112152.182500", "112153.462500", "112154.742500", "112156.022500", "112157.302500", "112158.582500", "112159.862500", "112201.142500", "112202.422500", "112203.702500", "112204.982500", "112206.262500", "112207.542500", "112208.822500", "112210.102500", "112211.382500", "112212.662500", "112213.942500", "112215.222500", "112216.502500", "112217.782500", "112219.062500", "112220.342500", "112221.622500", "112222.902500", "112224.182500", "112225.462500", "112226.742500", "112228.022500", "112229.302500", "112230.582500", "112231.862500", "112233.142500", "112234.422500", "112235.702500", "112236.982500", "112238.262500", "112239.542500", "112240.822500", "112242.102500", "112243.382500", "112244.662500", "112245.942500", "112247.222500", "112248.502500", "112249.782500", "112251.062500", "112252.342500", "112253.622500", "112254.902500", "112256.182500", "112257.462500", "112258.742500", "112300.022500", "112301.302500", "112302.582500", "112303.862500", "112305.142500", "112306.422500", "112307.702500", "112308.982500", "112310.262500", "112311.542500", "112312.822500", "112314.102500", "112315.382500", "112316.662500", "112317.942500", "112319.222500", "112320.502500", "112321.782500", "112323.062500", "112324.342500", "112325.622500", "112326.902500", "112328.182500", "112329.462500", "112330.742500", "112332.022500", "112333.302500", "112334.582500", "112335.862500", "112337.142500", "112338.422500", "112339.702500", "112340.982500", "112342.262500", "112343.542500", "112344.822500", "112346.102500", "112347.382500", "112348.662500", "112349.942500", "112351.222500", "112352.502500", "112353.782500", "112355.062500", "112356.342500", "112357.622500", "112358.902500", "112400.182500", "112401.462500", "112402.742500", "112404.022500", "112405.302500", "112406.582500", "112407.862500", "112409.142500", "112410.422500", "112411.702500", "112412.982500", "112414.262500", "112415.542500", "112416.822500", "112418.102500", "112419.382500", "112420.662500", "112421.942500", "112423.222500", "112424.502500", "112425.782500", "112427.062500", "112428.342500", "112429.622500", "112430.902500", "112432.182500", "112433.462500", "112434.742500", "112436.022500", "112437.302500", "112438.582500", "112439.862500", "112441.142500", "112442.422500", "112443.702500", "112444.982500", "112446.262500", "112447.542500", "112448.822500", "112450.102500", "112451.382500", "112452.662500", "112453.942500", "112455.222500", "112456.502500", "112457.782500", "112459.062500", "112500.342500", "112501.622500", "112502.902500", "112504.182500", "112505.462500", "112506.742500", "112508.022500", "112509.302500", "112510.582500", "112511.862500", "112513.142500", "112514.422500", "112515.702500", "112516.982500", "112518.262500", "112519.542500", "112520.822500", "112522.102500", "112523.382500", "112524.662500", "112525.942500", "112527.222500", "112528.502500", "112529.782500", "112531.062500", "112532.342500", "112533.622500", "112534.902500", "112536.182500", "112537.462500", "112538.742500", "112540.022500", "112541.302500", "112542.582500", "112543.862500", "112545.142500", "112546.422500", "112547.702500", "112548.982500", "112550.262500", "112551.542500", "112552.822500", "112554.102500", "112555.382500", "112556.662500", "112557.942500", "112559.222500", "112600.502500", "112601.782500", "112603.062500", "112604.342500", "112605.622500", "112606.902500", "112608.182500", "112609.462500", "112610.742500", "112612.022500", "112613.302500", "112614.582500", "112615.862500", "112617.142500", "112618.422500", "112619.702500", "112620.982500", "112622.262500", "112623.542500", "112624.822500", "112626.102500", "112627.382500", "112628.662500", "112629.942500", "112631.222500", "112632.502500", "112633.782500", "112635.062500", "112636.342500", "112637.622500", "112638.902500", "112640.182500", "112641.462500", "112642.742500", "112644.022500", "112645.302500", "112646.582500", "112647.862500", "112649.142500", "112650.422500", "112651.702500", "112652.982500", "112654.262500", "112655.542500", "112656.822500", "112658.102500", "112659.382500", "112700.662500", "112701.942500", "112703.222500", "112704.502500", "112705.782500", "112707.062500", "112708.342500", "112709.622500", "112710.902500", "112712.182500", "112713.462500", "112714.742500", "112716.022500", "112717.302500", "112718.582500", "112719.862500", "112721.142500", "112722.422500", "112723.702500", "112724.982500", "112726.262500", "112727.542500", "112728.822500", "112730.102500", "112731.382500", "112732.662500", "112733.942500", "112735.222500", "112736.502500", "112737.782500", "112739.062500", "112740.342500", "112741.622500", "112742.902500", "112744.182500", "112745.462500", "112746.742500", "112748.022500", "112749.302500", "112750.582500", "112751.862500", "112753.142500", "112754.422500", "112755.702500", "112756.982500", "112758.262500", "112759.542500", "112800.822500", "112802.102500", "112803.382500", "112804.662500", "112805.942500", "112807.222500", "112808.502500", "112809.782500", "112811.062500", "112812.342500", "112813.622500", "112814.902500", "112816.182500", "112817.462500", "112818.742500", "112820.022500", "112821.302500", "112822.582500", "112823.862500", "112825.142500", "112826.422500", "112827.702500", "112828.982500", "112830.262500", "112831.542500", "112832.822500", "112834.102500", "112835.382500", "112836.662500", "112837.942500", "112839.222500", "112840.502500", "112841.782500"],
      "ContentTime": ["112126.941000", "112126.945000", "112126.947000", "112126.950000", "112126.953000", "112126.956000", "112126.959000", "112126.962000", "112126.965000", "112126.976000", "112126.979000", "112126.982000", "112126.985000", "112126.988000", "112126.991000", "112126.994000", "112126.997000", "112127.001000", "112127.011000", "112127.014000", "112127.017000", "112127.019000", "112127.022000", "112127.025000", "112127.028000", "112127.031000", "112127.034000", "112127.045000", "112127.048000", "112127.050000", "112127.053000", "112127.057000", "112206.935000", "112206.938000", "112206.941000", "112206.952000", "112206.955000", "112206.958000", "112206.961000", "112206.964000", "112206.967000", "112206.970000", "112206.973000", "112206.976000", "112206.979000", "112206.982000", "112206.984000", "112206.987000", "112206.990000", "112206.993000", "112206.996000", "112207.000000", "112207.003000", "112207.006000", "112207.019000", "112207.022000", "112207.025000", "112207.028000", "112207.031000", "112207.034000", "112207.037000", "112207.040000", "112207.043000", "112246.936000", "112246.939000", "112246.942000", "112246.945000", "112246.948000", "112246.951000", "112246.954000", "112246.957000", "112246.960000", "112246.963000", "112246.966000", "112246.983000", "112246.986000", "112246.997000", "112247.001000", "112247.004000", "112247.007000", "112247.010000", "112247.013000", "112247.016000", "112247.019000", "112247.022000", "112247.025000", "112247.028000", "112247.031000", "112247.034000", "112247.037000", "112247.039000", "112247.042000", "112247.045000", "112247.048000", "112326.936000", "112326.939000", "112326.942000", "112326.945000", "112326.948000", "112326.951000", "112326.954000", "112326.957000", "112326.960000", "112326.963000", "112326.966000", "112326.969000", "112326.972000", "112326.975000", "112326.977000", "112326.980000", "112326.983000", "112326.986000", "112326.990000", "112326.993000", "112326.996000", "112327.000000", "112327.003000", "112327.007000", "112327.010000", "112327.013000", "112327.016000", "112327.019000", "112327.022000", "112327.025000", "112327.028000", "112406.936000", "112406.939000", "112406.942000", "112406.945000", "112406.948000", "112406.951000", "112406.954000", "112406.957000", "112406.960000", "112406.963000", "112406.966000", "112406.969000", "112406.972000", "112406.975000", "112406.978000", "112406.981000", "112406.984000", "112406.987000", "112406.990000", "112406.993000", "112406.996000", "112407.000000", "112407.003000", "112407.006000", "112407.009000", "112407.012000", "112407.015000", "112407.018000", "112407.021000", "112407.024000", "112407.027000", "112407.030000", "112446.936000", "112446.939000", "112446.942000", "112446.945000", "112446.948000", "112446.951000", "112446.954000", "112446.957000", "112446.960000", "112446.963000", "112446.966000", "112446.969000", "112446.972000", "112446.975000", "112446.978000", "112446.981000", "112446.984000", "112446.987000", "112446.990000", "112446.993000", "112446.996000", "112447.000000", "112447.003000", "112447.005000", "112447.008000", "112447.011000", "112447.014000", "112447.017000", "112447.020000", "112447.023000", "112447.026000", "112526.936000", "112526.939000", "112526.942000", "112526.945000", "112526.948000", "112526.951000", "112526.954000", "112526.957000", "112526.960000", "112526.963000", "112526.966000", "112526.969000", "112526.972000", "112526.975000", "112526.978000", "112526.981000", "112526.984000", "112526.986000", "112526.989000", "112526.992000", "112526.995000", "112526.998000", "112527.002000", "112527.005000", "112527.008000", "112527.011000", "112527.014000", "112527.017000", "112527.020000", "112527.023000", "112527.026000", "112606.936000", "112606.939000", "112606.942000", "112606.945000", "112606.948000", "112606.951000", "112606.954000", "112606.957000", "112606.960000", "112606.963000", "112606.966000", "112606.969000", "112606.972000", "112606.975000", "112606.978000", "112606.981000", "112606.984000", "112606.987000", "112606.990000", "112606.993000", "112606.996000", "112607.000000", "112607.003000", "112607.006000", "112607.009000", "112607.012000", "112607.015000", "112607.018000", "112607.021000", "112607.024000", "112607.037000", "112646.935000", "112646.938000", "112646.941000", "112646.944000", "112646.947000", "112646.950000", "112646.953000", "112646.956000", "112646.959000", "112646.962000", "112646.965000", "112646.968000", "112646.971000", "112646.974000", "112646.977000", "112646.980000", "112646.983000", "112646.986000", "112646.989000", "112646.992000", "112646.995000", "112646.998000", "112647.002000", "112647.005000", "112647.008000", "112647.011000", "112647.014000", "112647.017000", "112647.020000", "112647.023000", "112647.026000", "112647.029000", "112726.936000", "112726.939000", "112726.942000", "112726.945000", "112726.948000", "112726.951000", "112726.954000", "112726.957000", "112726.960000", "112726.963000", "112726.966000", "112726.969000", "112726.972000", "112726.975000", "112726.978000", "112726.981000", "112726.984000", "112726.987000", "112726.990000", "112726.993000", "112726.996000", "112727.000000", "112727.003000", "112727.006000", "112727.009000", "112727.012000", "112727.015000", "112727.018000", "112727.021000", "112727.024000", "112727.037000", "112806.936000", "112806.939000", "112806.942000", "112806.945000", "112806.948000", "112806.951000", "112806.954000", "112806.957000", "112806.960000", "112806.963000", "112806.966000", "112806.969000", "112806.972000", "112806.975000", "112806.978000", "112806.981000", "112806.984000", "112806.996000", "112807.000000", "112807.003000", "112807.006000", "112807.009000", "112807.012000", "112807.015000", "112807.018000", "112807.021000", "112807.024000", "112807.027000", "112807.030000", "112807.033000", "112807.036000", "112843.096000", "112843.100000", "112843.104000", "112843.107000", "112843.111000", "112843.114000", "112843.118000", "112843.121000", "112843.125000", "112843.129000", "112843.132000", "112843.135000", "112843.138000", "112843.141000", "112843.144000", "112843.147000", "112843.150000", "112843.154000", "112843.157000", "112843.160000", "112843.163000", "112843.166000", "112843.169000", "112843.172000", "112843.175000", "112843.179000", "112843.182000", "112843.184000", "112843.188000"],
      "InstanceCreationTime": ["112126.941000", "112126.945000", "112126.947000", "112126.950000", "112126.953000", "112126.956000", "112126.959000", "112126.962000", "112126.965000", "112126.976000", "112126.979000", "112126.982000", "112126.985000", "112126.988000", "112126.991000", "112126.994000", "112126.997000", "112127.001000", "112127.011000", "112127.014000", "112127.017000", "112127.019000", "112127.022000", "112127.025000", "112127.028000", "112127.031000", "112127.034000", "112127.045000", "112127.048000", "112127.050000", "112127.053000", "112127.057000", "112206.935000", "112206.938000", "112206.941000", "112206.952000", "112206.955000", "112206.958000", "112206.961000", "112206.964000", "112206.967000", "112206.970000", "112206.973000", "112206.976000", "112206.979000", "112206.982000", "112206.984000", "112206.987000", "112206.990000", "112206.993000", "112206.996000", "112207.000000", "112207.003000", "112207.006000", "112207.019000", "112207.022000", "112207.025000", "112207.028000", "112207.031000", "112207.034000", "112207.037000", "112207.040000", "112207.043000", "112246.936000", "112246.939000", "112246.942000", "112246.945000", "112246.948000", "112246.951000", "112246.954000", "112246.957000", "112246.960000", "112246.963000", "112246.966000", "112246.983000", "112246.986000", "112246.997000", "112247.001000", "112247.004000", "112247.007000", "112247.010000", "112247.013000", "112247.016000", "112247.019000", "112247.022000", "112247.025000", "112247.028000", "112247.031000", "112247.034000", "112247.037000", "112247.039000", "112247.042000", "112247.045000", "112247.048000", "112326.936000", "112326.939000", "112326.942000", "112326.945000", "112326.948000", "112326.951000", "112326.954000", "112326.957000", "112326.960000", "112326.963000", "112326.966000", "112326.969000", "112326.972000", "112326.975000", "112326.977000", "112326.980000", "112326.983000", "112326.986000", "112326.990000", "112326.993000", "112326.996000", "112327.000000", "112327.003000", "112327.007000", "112327.010000", "112327.013000", "112327.016000", "112327.019000", "112327.022000", "112327.025000", "112327.028000", "112406.936000", "112406.939000", "112406.942000", "112406.945000", "112406.948000", "112406.951000", "112406.954000", "112406.957000", "112406.960000", "112406.963000", "112406.966000", "112406.969000", "112406.972000", "112406.975000", "112406.978000", "112406.981000", "112406.984000", "112406.987000", "112406.990000", "112406.993000", "112406.996000", "112407.000000", "112407.003000", "112407.006000", "112407.009000", "112407.012000", "112407.015000", "112407.018000", "112407.021000", "112407.024000", "112407.027000", "112407.030000", "112446.936000", "112446.939000", "112446.942000", "112446.945000", "112446.948000", "112446.951000", "112446.954000", "112446.957000", "112446.960000", "112446.963000", "112446.966000", "112446.969000", "112446.972000", "112446.975000", "112446.978000", "112446.981000", "112446.984000", "112446.987000", "112446.990000", "112446.993000", "112446.996000", "112447.000000", "112447.003000", "112447.005000", "112447.008000", "112447.011000", "112447.014000", "112447.017000", "112447.020000", "112447.023000", "112447.026000", "112526.936000", "112526.939000", "112526.942000", "112526.945000", "112526.948000", "112526.951000", "112526.954000", "112526.957000", "112526.960000", "112526.963000", "112526.966000", "112526.969000", "112526.972000", "112526.975000", "112526.978000", "112526.981000", "112526.984000", "112526.986000", "112526.989000", "112526.992000", "112526.995000", "112526.998000", "112527.002000", "112527.005000", "112527.008000", "112527.011000", "112527.014000", "112527.017000", "112527.020000", "112527.023000", "112527.026000", "112606.936000", "112606.939000", "112606.942000", "112606.945000", "112606.948000", "112606.951000", "112606.954000", "112606.957000", "112606.960000", "112606.963000", "112606.966000", "112606.969000", "112606.972000", "112606.975000", "112606.978000", "112606.981000", "112606.984000", "112606.987000", "112606.990000", "112606.993000", "112606.996000", "112607.000000", "112607.003000", "112607.006000", "112607.009000", "112607.012000", "112607.015000", "112607.018000", "112607.021000", "112607.024000", "112607.037000", "112646.935000", "112646.938000", "112646.941000", "112646.944000", "112646.947000", "112646.950000", "112646.953000", "112646.956000", "112646.959000", "112646.962000", "112646.965000", "112646.968000", "112646.971000", "112646.974000", "112646.977000", "112646.980000", "112646.983000", "112646.986000", "112646.989000", "112646.992000", "112646.995000", "112646.998000", "112647.002000", "112647.005000", "112647.008000", "112647.011000", "112647.014000", "112647.017000", "112647.020000", "112647.023000", "112647.026000", "112647.029000", "112726.936000", "112726.939000", "112726.942000", "112726.945000", "112726.948000", "112726.951000", "112726.954000", "112726.957000", "112726.960000", "112726.963000", "112726.966000", "112726.969000", "112726.972000", "112726.975000", "112726.978000", "112726.981000", "112726.984000", "112726.987000", "112726.990000", "112726.993000", "112726.996000", "112727.000000", "112727.003000", "112727.006000", "112727.009000", "112727.012000", "112727.015000", "112727.018000", "112727.021000", "112727.024000", "112727.037000", "112806.936000", "112806.939000", "112806.942000", "112806.945000", "112806.948000", "112806.951000", "112806.954000", "112806.957000", "112806.960000", "112806.963000", "112806.966000", "112806.969000", "112806.972000", "112806.975000", "112806.978000", "112806.981000", "112806.984000", "112806.996000", "112807.000000", "112807.003000", "112807.006000", "112807.009000", "112807.012000", "112807.015000", "112807.018000", "112807.021000", "112807.024000", "112807.027000", "112807.030000", "112807.033000", "112807.036000", "112843.096000", "112843.100000", "112843.104000", "112843.107000", "112843.111000", "112843.114000", "112843.118000", "112843.121000", "112843.125000", "112843.129000", "112843.132000", "112843.135000", "112843.138000", "112843.141000", "112843.144000", "112843.147000", "112843.150000", "112843.154000", "112843.157000", "112843.160000", "112843.163000", "112843.166000", "112843.169000", "112843.172000", "112843.175000", "112843.179000", "112843.182000", "112843.184000", "112843.188000"],
      "InstanceNumber": [1, 2, 3, 4, 5, 6, 7, 8, 9, 10, 11, 12, 13, 14, 15, 16, 17, 18, 19, 20, 21, 22, 23, 24, 25, 26, 27, 28, 29, 30, 31, 32, 33, 34, 35, 36, 37, 38, 39, 40, 41, 42, 43, 44, 45, 46, 47, 48, 49, 50, 51, 52, 53, 54, 55, 56, 57, 58, 59, 60, 61, 62, 63, 64, 65, 66, 67, 68, 69, 70, 71, 72, 73, 74, 75, 76, 77, 78, 79, 80, 81, 82, 83, 84, 85, 86, 87, 88, 89, 90, 91, 92, 93, 94, 95, 96, 97, 98, 99, 100, 101, 102, 103, 104, 105, 106, 107, 108, 109, 110, 111, 112, 113, 114, 115, 116, 117, 118, 119, 120, 121, 122, 123, 124, 125, 126, 127, 128, 129, 130, 131, 132, 133, 134, 135, 136, 137, 138, 139, 140, 141, 142, 143, 144, 145, 146, 147, 148, 149, 150, 151, 152, 153, 154, 155, 156, 157, 158, 159, 160, 161, 162, 163, 164, 165, 166, 167, 168, 169, 170, 171, 172, 173, 174, 175, 176, 177, 178, 179, 180, 181, 182, 183, 184, 185, 186, 187, 188, 189, 190, 191, 192, 193, 194, 195, 196, 197, 198, 199, 200, 201, 202, 203, 204, 205, 206, 207, 208, 209, 210, 211, 212, 213, 214, 215, 216, 217, 218, 219, 220, 221, 222, 223, 224, 225, 226, 227, 228, 229, 230, 231, 232, 233, 234, 235, 236, 237, 238, 239, 240, 241, 242, 243, 244, 245, 246, 247, 248, 249, 250, 251, 252, 253, 254, 255, 256, 257, 258, 259, 260, 261, 262, 263, 264, 265, 266, 267, 268, 269, 270, 271, 272, 273, 274, 275, 276, 277, 278, 279, 280, 281, 282, 283, 284, 285, 286, 287, 288, 289, 290, 291, 292, 293, 294, 295, 296, 297, 298, 299, 300, 301, 302, 303, 304, 305, 306, 307, 308, 309, 310, 311, 312, 313, 314, 315, 316, 317, 318, 319, 320, 321, 322, 323, 324, 325, 326, 327, 328, 329, 330, 331, 332, 333, 334, 335, 336, 337, 338, 339, 340, 341, 342, 343, 344, 345, 346, 347, 348, 349, 350, 351, 352, 353, 354, 355, 356, 357, 358, 359, 360, 361, 362, 363, 364, 365, 366, 367, 368, 369, 370, 371, 372, 373],
