{
  "AcquisitionMatrixPE": 108,
  "AcquisitionNumber": 1,
  "AcquisitionTime": "12:13:24.670000",
  "BandwidthPerPixelPhaseEncode": 15.964,
  "BaseResolution": 108,
  "BodyPartExamined": "BRAIN",
  "ConsistencyInfo": "N4_VE11C_LATEST_20160120",
  "ConversionSoftware": "dcm2niix",
  "ConversionSoftwareVersion": "v1.0.20180622 GCC6.3.0",
  "DerivedVendorReportedEchoSpacing": 0.000580009,
  "DeviceSerialNumber": "66054",
  "DwellTime": 2.1e-06,
  "EchoTime": 0.031,
  "EchoTrainLength": 95,
  "EffectiveEchoSpacing": 0.000580009,
  "FlipAngle": 64,
  "ImageOrientationPatientDICOM": [0.99884, 0.0369958, 0.0308262, -0.0209227, 0.90997, -0.414147],
  "ImageType": [
    "ORIGINAL",
    "PRIMARY",
    "M",
    "ND",
    "MOSAIC"
],
  "InPlanePhaseEncodingDirectionDICOM": "COL",
  "InstitutionAddress": "Chemin_des_Mines_9_Geneve_District_CH_1211",
  "InstitutionName": "Fondation_Campus_Biotech_Geneva",
  "InstitutionalDepartmentName": "Department",
  "MRAcquisitionType": "2D",
  "MagneticFieldStrength": 3,
  "Manufacturer": "Siemens",
  "ManufacturersModelName": "Prisma",
  "Modality": "MR",
  "MultibandAccelerationFactor": 4,
  "PartialFourier": 0.875,
  "PatientPosition": "HFS",
  "PercentPhaseFOV": 100,
  "PhaseEncodingDirection": "j-",
  "PhaseEncodingSteps": 95,
  "PhaseResolution": 1,
  "PixelBandwidth": 2205,
  "ProcedureStepDescription": "J.DRM_Michael",
  "ProtocolName": "Run5_bold_s4_TR1.28",
  "PulseSequenceDetails": "%SiemensSeq%_ep2d_bold",
  "ReceiveCoilActiveElements": "HC1-7;NC1,2",
  "ReceiveCoilName": "HeadNeck_64",
  "ReconMatrixPE": 108,
  "RepetitionTime": 1.28,
  "SAR": 0.0740349,
  "ScanOptions": "PFP_FS",
  "ScanningSequence": "EP",
  "SequenceName": "_epfid2d1_108",
  "SequenceVariant": "SK",
  "SeriesDescription": "Run5_bold_s4_TR1.28",
  "SeriesNumber": 11,
  "ShimSetting": [-1244, -11664, 6445, 611, 127, 47, 123, 70],
  "SliceThickness": 2,
  "SliceTiming": [0.945, 0, 0.63, 0.08, 0.71, 0.1575, 0.7875, 0.2375, 0.8675, 0.395, 1.025, 0.4725, 1.1025, 0.5525, 1.1825, 0.315, 0.945, 0, 0.63, 0.08, 0.71, 0.1575, 0.7875, 0.2375, 0.8675, 0.395, 1.025, 0.4725, 1.1025, 0.5525, 1.1825, 0.315, 0.945, 0, 0.63, 0.08, 0.71, 0.1575, 0.7875, 0.2375, 0.8675, 0.395, 1.025, 0.4725, 1.1025, 0.5525, 1.1825, 0.315, 0.945, 0, 0.63, 0.08, 0.71, 0.1575, 0.7875, 0.2375, 0.8675, 0.395, 1.025, 0.4725, 1.1025, 0.5525, 1.1825, 0.315],
  "SoftwareVersions": "syngo_MR_E11",
  "SpacingBetweenSlices": 2,
  "StationName": "AWP66054",
  "TaskName": "main",
  "TotalReadoutTime": 0.0620609,
  "TxRefAmp": 274.915,
  "dcmmeta_affine": [
    [-1.9884312152862549, -0.041651759296655655, 0.08674513548612595, 105.445068359375],
    [-0.07364898920059204, 1.8115137815475464, -0.826042115688324, -65.7801742553711],
    [0.06136695295572281, 0.8244583606719971, 1.8193761110305786, -93.45880126953125],
    [0.0, 0.0, 0.0, 1.0]
],
  "dcmmeta_reorient_transform": [
    [0.0, -1.0, 0.0, 107.0],
    [1.0, 0.0, 0.0, 0.0],
    [0.0, 0.0, 1.0, 0.0],
    [0.0, 0.0, 0.0, 1.0]
],
  "dcmmeta_shape": [108, 108, 64, 373],
  "dcmmeta_slice_dim": 2,
  "dcmmeta_version": 0.6,
  "global": {
    "const": {
      "AccessionNumber": "",
      "AcquisitionMatrix": [108, 0, 0, 108],
      "AngioFlag": "N",
      "BitsAllocated": 16,
      "BitsStored": 12,
      "BodyPartExamined": "BRAIN",
      "Columns": 864,
      "EchoNumbers": 1,
      "EchoTime": 31.0,
      "EchoTrainLength": 95,
      "FlipAngle": 64.0,
      "HighBit": 11,
      "ImageOrientationPatient": [0.99883985658735, 0.0369957691015, 0.03082618953337, -0.0209227441838, 0.90996972521468, -0.4141465175135],
      "ImagePositionPatient": [-836.87097381073, -840.64335507965, 283.20679177542],
      "ImageType": [
        "ORIGINAL",
        "PRIMARY",
        "M",
        "ND",
        "MOSAIC"
],
      "ImagedNucleus": "1H",
      "ImagingFrequency": 123.257407,
      "InPlanePhaseEncodingDirection": "COL",
      "MRAcquisitionType": "2D",
      "MagneticFieldStrength": 3.0,
      "Manufacturer": "SIEMENS",
      "ManufacturerModelName": "Prisma",
      "Modality": "MR",
      "NumberOfAverages": 1.0,
      "NumberOfPhaseEncodingSteps": 95,
      "PercentPhaseFieldOfView": 100.0,
      "PercentSampling": 100.0,
      "PerformedProcedureStepStartTime": "110853.972000",
      "PhotometricInterpretation": "MONOCHROME2",
      "PixelBandwidth": 2205.0,
      "PixelRepresentation": 0,
      "PixelSpacing": [1.990740776062, 1.990740776062],
      "PositionReferenceIndicator": "",
      "ProtocolName": "Run5_bold_s4_TR1.28",
      "RepetitionTime": 1280.0,
      "Rows": 864,
      "SAR": 0.07403487852588,
      "SamplesPerPixel": 1,
      "ScanOptions": [
        "PFP",
        "FS"
],
      "ScanningSequence": "EP",
      "SequenceName": "*epfid2d1_108",
      "SequenceVariant": "SK",
      "SeriesDescription": "Run5_bold_s4_TR1.28",
      "SeriesNumber": 11,
      "SeriesTime": "121406.937000",
      "SliceLocation": -53.276339334504,
      "SliceThickness": 2.0,
      "SmallestImagePixelValue": 0,
      "SoftwareVersions": "syngo MR E11",
      "SpacingBetweenSlices": 1.9999999297645,
      "SpecificCharacterSet": "ISO_IR 100",
      "StudyID": "1",
      "StudyTime": "110853.903000",
      "TransmitCoilName": "Body",
      "VariableFlipAngleFlag": "N",
      "WindowCenterWidthExplanation": "Algo1",
      "dBdt": 0.0},
    "slices": {}
  },
  "time": {
    "samples": {
      "AcquisitionNumber": [1, 2, 3, 4, 5, 6, 7, 8, 9, 10, 11, 12, 13, 14, 15, 16, 17, 18, 19, 20, 21, 22, 23, 24, 25, 26, 27, 28, 29, 30, 31, 32, 33, 34, 35, 36, 37, 38, 39, 40, 41, 42, 43, 44, 45, 46, 47, 48, 49, 50, 51, 52, 53, 54, 55, 56, 57, 58, 59, 60, 61, 62, 63, 64, 65, 66, 67, 68, 69, 70, 71, 72, 73, 74, 75, 76, 77, 78, 79, 80, 81, 82, 83, 84, 85, 86, 87, 88, 89, 90, 91, 92, 93, 94, 95, 96, 97, 98, 99, 100, 101, 102, 103, 104, 105, 106, 107, 108, 109, 110, 111, 112, 113, 114, 115, 116, 117, 118, 119, 120, 121, 122, 123, 124, 125, 126, 127, 128, 129, 130, 131, 132, 133, 134, 135, 136, 137, 138, 139, 140, 141, 142, 143, 144, 145, 146, 147, 148, 149, 150, 151, 152, 153, 154, 155, 156, 157, 158, 159, 160, 161, 162, 163, 164, 165, 166, 167, 168, 169, 170, 171, 172, 173, 174, 175, 176, 177, 178, 179, 180, 181, 182, 183, 184, 185, 186, 187, 188, 189, 190, 191, 192, 193, 194, 195, 196, 197, 198, 199, 200, 201, 202, 203, 204, 205, 206, 207, 208, 209, 210, 211, 212, 213, 214, 215, 216, 217, 218, 219, 220, 221, 222, 223, 224, 225, 226, 227, 228, 229, 230, 231, 232, 233, 234, 235, 236, 237, 238, 239, 240, 241, 242, 243, 244, 245, 246, 247, 248, 249, 250, 251, 252, 253, 254, 255, 256, 257, 258, 259, 260, 261, 262, 263, 264, 265, 266, 267, 268, 269, 270, 271, 272, 273, 274, 275, 276, 277, 278, 279, 280, 281, 282, 283, 284, 285, 286, 287, 288, 289, 290, 291, 292, 293, 294, 295, 296, 297, 298, 299, 300, 301, 302, 303, 304, 305, 306, 307, 308, 309, 310, 311, 312, 313, 314, 315, 316, 317, 318, 319, 320, 321, 322, 323, 324, 325, 326, 327, 328, 329, 330, 331, 332, 333, 334, 335, 336, 337, 338, 339, 340, 341, 342, 343, 344, 345, 346, 347, 348, 349, 350, 351, 352, 353, 354, 355, 356, 357, 358, 359, 360, 361, 362, 363, 364, 365, 366, 367, 368, 369, 370, 371, 372, 373],
      "AcquisitionTime": ["121324.670000", "121325.950000", "121327.230000", "121328.510000", "121329.790000", "121331.070000", "121332.350000", "121333.630000", "121334.910000", "121336.190000", "121337.470000", "121338.750000", "121340.030000", "121341.310000", "121342.590000", "121343.870000", "121345.150000", "121346.430000", "121347.710000", "121348.990000", "121350.270000", "121351.550000", "121352.830000", "121354.110000", "121355.390000", "121356.670000", "121357.950000", "121359.230000", "121400.510000", "121401.790000", "121403.070000", "121404.350000", "121405.630000", "121406.910000", "121408.190000", "121409.470000", "121410.750000", "121412.030000", "121413.310000", "121414.590000", "121415.870000", "121417.150000", "121418.430000", "121419.710000", "121420.990000", "121422.270000", "121423.550000", "121424.830000", "121426.110000", "121427.390000", "121428.670000", "121429.950000", "121431.230000", "121432.510000", "121433.790000", "121435.070000", "121436.350000", "121437.630000", "121438.910000", "121440.190000", "121441.470000", "121442.750000", "121444.030000", "121445.310000", "121446.590000", "121447.870000", "121449.150000", "121450.430000", "121451.710000", "121452.990000", "121454.270000", "121455.550000", "121456.830000", "121458.110000", "121459.390000", "121500.670000", "121501.950000", "121503.230000", "121504.510000", "121505.790000", "121507.070000", "121508.350000", "121509.630000", "121510.910000", "121512.190000", "121513.470000", "121514.750000", "121516.030000", "121517.310000", "121518.590000", "121519.870000", "121521.150000", "121522.430000", "121523.710000", "121524.990000", "121526.270000", "121527.550000", "121528.830000", "121530.110000", "121531.390000", "121532.670000", "121533.950000", "121535.230000", "121536.510000", "121537.790000", "121539.070000", "121540.350000", "121541.630000", "121542.910000", "121544.190000", "121545.470000", "121546.750000", "121548.030000", "121549.310000", "121550.590000", "121551.870000", "121553.150000", "121554.430000", "121555.710000", "121556.990000", "121558.270000", "121559.550000", "121600.830000", "121602.110000", "121603.390000", "121604.670000", "121605.950000", "121607.230000", "121608.510000", "121609.790000", "121611.070000", "121612.350000", "121613.630000", "121614.910000", "121616.190000", "121617.470000", "121618.750000", "121620.030000", "121621.310000", "121622.590000", "121623.870000", "121625.150000", "121626.430000", "121627.710000", "121628.990000", "121630.270000", "121631.550000", "121632.830000", "121634.110000", "121635.390000", "121636.670000", "121637.950000", "121639.230000", "121640.510000", "121641.790000", "121643.070000", "121644.350000", "121645.630000", "121646.910000", "121648.190000", "121649.470000", "121650.750000", "121652.030000", "121653.310000", "121654.590000", "121655.870000", "121657.150000", "121658.430000", "121659.710000", "121700.990000", "121702.270000", "121703.550000", "121704.830000", "121706.110000", "121707.390000", "121708.670000", "121709.950000", "121711.230000", "121712.510000", "121713.790000", "121715.070000", "121716.350000", "121717.630000", "121718.910000", "121720.190000", "121721.470000", "121722.750000", "121724.030000", "121725.310000", "121726.590000", "121727.870000", "121729.150000", "121730.430000", "121731.710000", "121732.990000", "121734.270000", "121735.550000", "121736.830000", "121738.110000", "121739.390000", "121740.670000", "121741.950000", "121743.230000", "121744.510000", "121745.790000", "121747.070000", "121748.350000", "121749.630000", "121750.910000", "121752.190000", "121753.470000", "121754.750000", "121756.030000", "121757.310000", "121758.590000", "121759.870000", "121801.150000", "121802.430000", "121803.710000", "121804.990000", "121806.270000", "121807.550000", "121808.830000", "121810.110000", "121811.390000", "121812.670000", "121813.950000", "121815.230000", "121816.510000", "121817.790000", "121819.070000", "121820.350000", "121821.630000", "121822.910000", "121824.190000", "121825.470000", "121826.750000", "121828.030000", "121829.310000", "121830.590000", "121831.870000", "121833.150000", "121834.430000", "121835.710000", "121836.990000", "121838.270000", "121839.550000", "121840.830000", "121842.110000", "121843.390000", "121844.670000", "121845.950000", "121847.230000", "121848.510000", "121849.790000", "121851.070000", "121852.350000", "121853.630000", "121854.910000", "121856.190000", "121857.470000", "121858.750000", "121900.030000", "121901.310000", "121902.590000", "121903.870000", "121905.150000", "121906.430000", "121907.710000", "121908.990000", "121910.270000", "121911.550000", "121912.830000", "121914.110000", "121915.390000", "121916.670000", "121917.950000", "121919.230000", "121920.510000", "121921.790000", "121923.070000", "121924.350000", "121925.630000", "121926.910000", "121928.190000", "121929.470000", "121930.750000", "121932.030000", "121933.310000", "121934.590000", "121935.870000", "121937.150000", "121938.430000", "121939.710000", "121940.990000", "121942.270000", "121943.550000", "121944.830000", "121946.110000", "121947.390000", "121948.670000", "121949.950000", "121951.230000", "121952.510000", "121953.790000", "121955.070000", "121956.350000", "121957.630000", "121958.910000", "122000.190000", "122001.470000", "122002.750000", "122004.030000", "122005.310000", "122006.590000", "122007.870000", "122009.150000", "122010.430000", "122011.710000", "122012.990000", "122014.270000", "122015.550000", "122016.830000", "122018.110000", "122019.390000", "122020.670000", "122021.950000", "122023.230000", "122024.510000", "122025.790000", "122027.070000", "122028.350000", "122029.630000", "122030.910000", "122032.190000", "122033.470000", "122034.750000", "122036.030000", "122037.310000", "122038.590000", "122039.870000", "122041.150000", "122042.430000", "122043.710000", "122044.990000", "122046.270000", "122047.550000", "122048.830000", "122050.110000", "122051.390000", "122052.670000", "122053.950000", "122055.230000", "122056.510000", "122057.790000", "122059.070000", "122100.350000", "122101.630000", "122102.910000", "122104.190000", "122105.470000", "122106.750000", "122108.030000", "122109.310000", "122110.590000", "122111.870000", "122113.150000", "122114.430000", "122115.710000", "122116.990000", "122118.270000", "122119.550000", "122120.830000"],
      "ContentTime": ["121406.941000", "121406.945000", "121406.948000", "121406.951000", "121406.954000", "121406.957000", "121406.965000", "121406.969000", "121406.972000", "121406.974000", "121406.977000", "121406.980000", "121406.983000", "121406.986000", "121406.989000", "121406.992000", "121406.995000", "121407.002000", "121407.005000", "121407.011000", "121407.014000", "121407.017000", "121407.020000", "121407.023000", "121407.026000", "121407.029000", "121407.032000", "121407.035000", "121407.038000", "121407.041000", "121407.043000", "121407.047000", "121407.049000", "121446.936000", "121446.939000", "121446.942000", "121446.945000", "121446.948000", "121446.951000", "121446.954000", "121446.957000", "121446.960000", "121446.963000", "121446.966000", "121446.969000", "121446.972000", "121446.975000", "121446.978000", "121446.981000", "121446.984000", "121446.986000", "121446.989000", "121446.992000", "121446.995000", "121446.998000", "121447.002000", "121447.005000", "121447.008000", "121447.020000", "121447.023000", "121447.026000", "121447.029000", "121447.032000", "121447.035000", "121526.935000", "121526.938000", "121526.941000", "121526.944000", "121526.947000", "121526.950000", "121526.953000", "121526.956000", "121526.959000", "121526.962000", "121526.965000", "121526.968000", "121526.976000", "121526.978000", "121526.982000", "121526.985000", "121526.987000", "121526.990000", "121526.994000", "121526.997000", "121527.001000", "121527.003000", "121527.007000", "121527.009000", "121527.012000", "121527.026000", "121527.034000", "121527.037000", "121527.040000", "121527.043000", "121527.046000", "121606.936000", "121606.939000", "121606.949000", "121606.952000", "121606.955000", "121606.958000", "121606.962000", "121606.966000", "121606.969000", "121606.973000", "121606.976000", "121606.982000", "121606.985000", "121606.988000", "121606.991000", "121606.994000", "121606.997000", "121607.001000", "121607.004000", "121607.007000", "121607.010000", "121607.013000", "121607.016000", "121607.019000", "121607.022000", "121607.025000", "121607.028000", "121607.031000", "121607.034000", "121607.037000", "121607.040000", "121646.936000", "121646.939000", "121646.942000", "121646.945000", "121646.948000", "121646.951000", "121646.954000", "121646.957000", "121646.960000", "121646.971000", "121646.975000", "121646.977000", "121646.980000", "121646.983000", "121646.987000", "121646.989000", "121646.992000", "121646.995000", "121646.998000", "121647.002000", "121647.005000", "121647.008000", "121647.011000", "121647.014000", "121647.017000", "121647.020000", "121647.023000", "121647.026000", "121647.029000", "121647.032000", "121647.035000", "121647.038000", "121726.936000", "121726.939000", "121726.942000", "121726.945000", "121726.948000", "121726.951000", "121726.954000", "121726.957000", "121726.960000", "121726.963000", "121726.966000", "121726.969000", "121726.972000", "121726.975000", "121726.978000", "121726.981000", "121726.984000", "121726.987000", "121726.990000", "121726.993000", "121726.996000", "121727.000000", "121727.003000", "121727.006000", "121727.009000", "121727.012000", "121727.015000", "121727.018000", "121727.021000", "121727.024000", "121727.027000", "121806.936000", "121806.939000", "121806.952000", "121806.955000", "121806.958000", "121806.961000", "121806.964000", "121806.967000", "121806.970000", "121806.973000", "121806.976000", "121806.979000", "121806.982000", "121806.985000", "121806.988000", "121806.991000", "121806.994000", "121806.997000", "121807.001000", "121807.004000", "121807.007000", "121807.010000", "121807.013000", "121807.016000", "121807.019000", "121807.022000", "121807.025000", "121807.028000", "121807.031000", "121807.034000", "121807.037000", "121846.936000", "121846.939000", "121846.942000", "121846.945000", "121846.949000", "121846.951000", "121846.954000", "121846.973000", "121846.976000", "121846.979000", "121846.982000", "121846.985000", "121846.988000", "121846.991000", "121846.994000", "121846.997000", "121847.001000", "121847.004000", "121847.007000", "121847.010000", "121847.013000", "121847.016000", "121847.019000", "121847.022000", "121847.025000", "121847.034000", "121847.037000", "121847.040000", "121847.043000", "121847.046000", "121847.049000", "121926.936000", "121926.939000", "121926.942000", "121926.945000", "121926.948000", "121926.951000", "121926.954000", "121926.957000", "121926.960000", "121926.963000", "121926.966000", "121926.969000", "121926.972000", "121926.975000", "121926.978000", "121926.981000", "121926.984000", "121926.987000", "121926.990000", "121926.993000", "121926.996000", "121927.000000", "121927.003000", "121927.006000", "121927.009000", "121927.012000", "121927.015000", "121927.024000", "121927.027000", "121927.030000", "121927.044000", "121927.047000", "122006.935000", "122006.938000", "122006.941000", "122006.944000", "122006.947000", "122006.950000", "122006.953000", "122006.956000", "122006.959000", "122006.962000", "122006.965000", "122006.968000", "122006.971000", "122006.974000", "122006.977000", "122006.980000", "122006.983000", "122006.986000", "122006.995000", "122006.998000", "122007.002000", "122007.005000", "122007.008000", "122007.011000", "122007.014000", "122007.017000", "122007.020000", "122007.023000", "122007.026000", "122007.029000", "122007.032000", "122046.936000", "122046.939000", "122046.942000", "122046.945000", "122046.948000", "122046.951000", "122046.954000", "122046.957000", "122046.960000", "122046.963000", "122046.973000", "122046.976000", "122046.979000", "122046.982000", "122046.985000", "122046.988000", "122046.991000", "122046.994000", "122046.997000", "122047.001000", "122047.004000", "122047.007000", "122047.010000", "122047.013000", "122047.016000", "122047.019000", "122047.022000", "122047.025000", "122047.028000", "122047.031000", "122047.038000", "122121.845000", "122121.848000", "122121.852000", "122121.855000", "122121.858000", "122121.863000", "122121.867000", "122121.872000", "122121.876000", "122121.880000", "122121.885000", "122121.889000", "122121.899000", "122121.903000", "122121.907000", "122121.912000", "122121.915000", "122121.918000", "122121.922000", "122121.925000", "122121.928000", "122121.934000", "122121.937000", "122121.940000", "122121.943000", "122121.947000", "122121.950000", "122121.953000"],
      "InstanceCreationTime": ["121406.941000", "121406.945000", "121406.948000", "121406.951000", "121406.954000", "121406.957000", "121406.965000", "121406.969000", "121406.972000", "121406.974000", "121406.977000", "121406.980000", "121406.983000", "121406.986000", "121406.989000", "121406.992000", "121406.995000", "121407.002000", "121407.005000", "121407.011000", "121407.014000", "121407.017000", "121407.020000", "121407.023000", "121407.026000", "121407.029000", "121407.032000", "121407.035000", "121407.038000", "121407.041000", "121407.043000", "121407.047000", "121407.049000", "121446.936000", "121446.939000", "121446.942000", "121446.945000", "121446.948000", "121446.951000", "121446.954000", "121446.957000", "121446.960000", "121446.963000", "121446.966000", "121446.969000", "121446.972000", "121446.975000", "121446.978000", "121446.981000", "121446.984000", "121446.986000", "121446.989000", "121446.992000", "121446.995000", "121446.998000", "121447.002000", "121447.005000", "121447.008000", "121447.020000", "121447.023000", "121447.026000", "121447.029000", "121447.032000", "121447.035000", "121526.935000", "121526.938000", "121526.941000", "121526.944000", "121526.947000", "121526.950000", "121526.953000", "121526.956000", "121526.959000", "121526.962000", "121526.965000", "121526.968000", "121526.976000", "121526.978000", "121526.982000", "121526.985000", "121526.987000", "121526.990000", "121526.994000", "121526.997000", "121527.001000", "121527.003000", "121527.007000", "121527.009000", "121527.012000", "121527.026000", "121527.034000", "121527.037000", "121527.040000", "121527.043000", "121527.046000", "121606.936000", "121606.939000", "121606.949000", "121606.952000", "121606.955000", "121606.958000", "121606.962000", "121606.966000", "121606.969000", "121606.973000", "121606.976000", "121606.982000", "121606.985000", "121606.988000", "121606.991000", "121606.994000", "121606.997000", "121607.001000", "121607.004000", "121607.007000", "121607.010000", "121607.013000", "121607.016000", "121607.019000", "121607.022000", "121607.025000", "121607.028000", "121607.031000", "121607.034000", "121607.037000", "121607.040000", "121646.936000", "121646.939000", "121646.942000", "121646.945000", "121646.948000", "121646.951000", "121646.954000", "121646.957000", "121646.960000", "121646.971000", "121646.975000", "121646.977000", "121646.980000", "121646.983000", "121646.987000", "121646.989000", "121646.992000", "121646.995000", "121646.998000", "121647.002000", "121647.005000", "121647.008000", "121647.011000", "121647.014000", "121647.017000", "121647.020000", "121647.023000", "121647.026000", "121647.029000", "121647.032000", "121647.035000", "121647.038000", "121726.936000", "121726.939000", "121726.942000", "121726.945000", "121726.948000", "121726.951000", "121726.954000", "121726.957000", "121726.960000", "121726.963000", "121726.966000", "121726.969000", "121726.972000", "121726.975000", "121726.978000", "121726.981000", "121726.984000", "121726.987000", "121726.990000", "121726.993000", "121726.996000", "121727.000000", "121727.003000", "121727.006000", "121727.009000", "121727.012000", "121727.015000", "121727.018000", "121727.021000", "121727.024000", "121727.027000", "121806.936000", "121806.939000", "121806.952000", "121806.955000", "121806.958000", "121806.961000", "121806.964000", "121806.967000", "121806.970000", "121806.973000", "121806.976000", "121806.979000", "121806.982000", "121806.985000", "121806.988000", "121806.991000", "121806.994000", "121806.997000", "121807.001000", "121807.004000", "121807.007000", "121807.010000", "121807.013000", "121807.016000", "121807.019000", "121807.022000", "121807.025000", "121807.028000", "121807.031000", "121807.034000", "121807.037000", "121846.936000", "121846.939000", "121846.942000", "121846.945000", "121846.949000", "121846.951000", "121846.954000", "121846.973000", "121846.976000", "121846.979000", "121846.982000", "121846.985000", "121846.988000", "121846.991000", "121846.994000", "121846.997000", "121847.001000", "121847.004000", "121847.007000", "121847.010000", "121847.013000", "121847.016000", "121847.019000", "121847.022000", "121847.025000", "121847.034000", "121847.037000", "121847.040000", "121847.043000", "121847.046000", "121847.049000", "121926.936000", "121926.939000", "121926.942000", "121926.945000", "121926.948000", "121926.951000", "121926.954000", "121926.957000", "121926.960000", "121926.963000", "121926.966000", "121926.969000", "121926.972000", "121926.975000", "121926.978000", "121926.981000", "121926.984000", "121926.987000", "121926.990000", "121926.993000", "121926.996000", "121927.000000", "121927.003000", "121927.006000", "121927.009000", "121927.012000", "121927.015000", "121927.024000", "121927.027000", "121927.030000", "121927.044000", "121927.047000", "122006.935000", "122006.938000", "122006.941000", "122006.944000", "122006.947000", "122006.950000", "122006.953000", "122006.956000", "122006.959000", "122006.962000", "122006.965000", "122006.968000", "122006.971000", "122006.974000", "122006.977000", "122006.980000", "122006.983000", "122006.986000", "122006.995000", "122006.998000", "122007.002000", "122007.005000", "122007.008000", "122007.011000", "122007.014000", "122007.017000", "122007.020000", "122007.023000", "122007.026000", "122007.029000", "122007.032000", "122046.936000", "122046.939000", "122046.942000", "122046.945000", "122046.948000", "122046.951000", "122046.954000", "122046.957000", "122046.960000", "122046.963000", "122046.973000", "122046.976000", "122046.979000", "122046.982000", "122046.985000", "122046.988000", "122046.991000", "122046.994000", "122046.997000", "122047.001000", "122047.004000", "122047.007000", "122047.010000", "122047.013000", "122047.016000", "122047.019000", "122047.022000", "122047.025000", "122047.028000", "122047.031000", "122047.038000", "122121.845000", "122121.848000", "122121.852000", "122121.855000", "122121.858000", "122121.863000", "122121.867000", "122121.872000", "122121.876000", "122121.880000", "122121.885000", "122121.889000", "122121.899000", "122121.903000", "122121.907000", "122121.912000", "122121.915000", "122121.918000", "122121.922000", "122121.925000", "122121.928000", "122121.934000", "122121.937000", "122121.940000", "122121.943000", "122121.947000", "122121.950000", "122121.953000"],
      "InstanceNumber": [1, 2, 3, 4, 5, 6, 7, 8, 9, 10, 11, 12, 13, 14, 15, 16, 17, 18, 19, 20, 21, 22, 23, 24, 25, 26, 27, 28, 29, 30, 31, 32, 33, 34, 35, 36, 37, 38, 39, 40, 41, 42, 43, 44, 45, 46, 47, 48, 49, 50, 51, 52, 53, 54, 55, 56, 57, 58, 59, 60, 61, 62, 63, 64, 65, 66, 67, 68, 69, 70, 71, 72, 73, 74, 75, 76, 77, 78, 79, 80, 81, 82, 83, 84, 85, 86, 87, 88, 89, 90, 91, 92, 93, 94, 95, 96, 97, 98, 99, 100, 101, 102, 103, 104, 105, 106, 107, 108, 109, 110, 111, 112, 113, 114, 115, 116, 117, 118, 119, 120, 121, 122, 123, 124, 125, 126, 127, 128, 129, 130, 131, 132, 133, 134, 135, 136, 137, 138, 139, 140, 141, 142, 143, 144, 145, 146, 147, 148, 149, 150, 151, 152, 153, 154, 155, 156, 157, 158, 159, 160, 161, 162, 163, 164, 165, 166, 167, 168, 169, 170, 171, 172, 173, 174, 175, 176, 177, 178, 179, 180, 181, 182, 183, 184, 185, 186, 187, 188, 189, 190, 191, 192, 193, 194, 195, 196, 197, 198, 199, 200, 201, 202, 203, 204, 205, 206, 207, 208, 209, 210, 211, 212, 213, 214, 215, 216, 217, 218, 219, 220, 221, 222, 223, 224, 225, 226, 227, 228, 229, 230, 231, 232, 233, 234, 235, 236, 237, 238, 239, 240, 241, 242, 243, 244, 245, 246, 247, 248, 249, 250, 251, 252, 253, 254, 255, 256, 257, 258, 259, 260, 261, 262, 263, 264, 265, 266, 267, 268, 269, 270, 271, 272, 273, 274, 275, 276, 277, 278, 279, 280, 281, 282, 283, 284, 285, 286, 287, 288, 289, 290, 291, 292, 293, 294, 295, 296, 297, 298, 299, 300, 301, 302, 303, 304, 305, 306, 307, 308, 309, 310, 311, 312, 313, 314, 315, 316, 317, 318, 319, 320, 321, 322, 323, 324, 325, 326, 327, 328, 329, 330, 331, 332, 333, 334, 335, 336, 337, 338, 339, 340, 341, 342, 343, 344, 345, 346, 347, 348, 349, 350, 351, 352, 353, 354, 355, 356, 357, 358, 359, 360, 361, 362, 363, 364, 365, 366, 367, 368, 369, 370, 371, 372, 373],
