{
  "AcquisitionMatrixPE": 108,
  "AcquisitionNumber": 1,
  "AcquisitionTime": "11:45:50.150000",
  "BandwidthPerPixelPhaseEncode": 15.964,
  "BaseResolution": 108,
  "BodyPartExamined": "BRAIN",
  "ConsistencyInfo": "N4_VE11C_LATEST_20160120",
  "ConversionSoftware": "dcm2niix",
  "ConversionSoftwareVersion": "v1.0.20180622 GCC6.3.0",
  "DerivedVendorReportedEchoSpacing": 0.000580009,
  "DeviceSerialNumber": "66054",
  "DwellTime": 2.1e-06,
  "EchoTime": 0.031,
  "EchoTrainLength": 95,
  "EffectiveEchoSpacing": 0.000580009,
  "FlipAngle": 64,
  "ImageOrientationPatientDICOM": [0.99884, 0.0369958, 0.0308262, -0.0209227, 0.90997, -0.414147],
  "ImageType": [
    "ORIGINAL",
    "PRIMARY",
    "M",
    "ND",
    "MOSAIC"
],
  "InPlanePhaseEncodingDirectionDICOM": "COL",
  "InstitutionAddress": "Chemin_des_Mines_9_Geneve_District_CH_1211",
  "InstitutionName": "Fondation_Campus_Biotech_Geneva",
  "InstitutionalDepartmentName": "Department",
  "MRAcquisitionType": "2D",
  "MagneticFieldStrength": 3,
  "Manufacturer": "Siemens",
  "ManufacturersModelName": "Prisma",
  "Modality": "MR",
  "MultibandAccelerationFactor": 4,
  "PartialFourier": 0.875,
  "PatientPosition": "HFS",
  "PercentPhaseFOV": 100,
  "PhaseEncodingDirection": "j-",
  "PhaseEncodingSteps": 95,
  "PhaseResolution": 1,
  "PixelBandwidth": 2205,
  "ProcedureStepDescription": "J.DRM_Michael",
  "ProtocolName": "Run3_bold_s4_TR1.28",
  "PulseSequenceDetails": "%SiemensSeq%_ep2d_bold",
  "ReceiveCoilActiveElements": "HC1-7;NC1,2",
  "ReceiveCoilName": "HeadNeck_64",
  "ReconMatrixPE": 108,
  "RepetitionTime": 1.28,
  "SAR": 0.0740349,
  "ScanOptions": "PFP_FS",
  "ScanningSequence": "EP",
  "SequenceName": "_epfid2d1_108",
  "SequenceVariant": "SK",
  "SeriesDescription": "Run3_bold_s4_TR1.28",
  "SeriesNumber": 8,
  "ShimSetting": [-1244, -11664, 6445, 611, 127, 47, 123, 70],
  "SliceThickness": 2,
  "SliceTiming": [0.945, 0, 0.63, 0.08, 0.71, 0.1575, 0.7875, 0.2375, 0.8675, 0.395, 1.025, 0.4725, 1.1025, 0.5525, 1.1825, 0.315, 0.945, 0, 0.63, 0.08, 0.71, 0.1575, 0.7875, 0.2375, 0.8675, 0.395, 1.025, 0.4725, 1.1025, 0.5525, 1.1825, 0.315, 0.945, 0, 0.63, 0.08, 0.71, 0.1575, 0.7875, 0.2375, 0.8675, 0.395, 1.025, 0.4725, 1.1025, 0.5525, 1.1825, 0.315, 0.945, 0, 0.63, 0.08, 0.71, 0.1575, 0.7875, 0.2375, 0.8675, 0.395, 1.025, 0.4725, 1.1025, 0.5525, 1.1825, 0.315],
  "SoftwareVersions": "syngo_MR_E11",
  "SpacingBetweenSlices": 2,
  "StationName": "AWP66054",
  "TaskName": "main",
  "TotalReadoutTime": 0.0620609,
  "TxRefAmp": 274.915,
  "dcmmeta_affine": [
    [-1.9884312152862549, -0.041651759296655655, 0.08674513548612595, 105.445068359375],
    [-0.07364898920059204, 1.8115137815475464, -0.826042115688324, -65.7801742553711],
    [0.06136695295572281, 0.8244583606719971, 1.8193761110305786, -93.45880126953125],
    [0.0, 0.0, 0.0, 1.0]
],
  "dcmmeta_reorient_transform": [
    [0.0, -1.0, 0.0, 107.0],
    [1.0, 0.0, 0.0, 0.0],
    [0.0, 0.0, 1.0, 0.0],
    [0.0, 0.0, 0.0, 1.0]
],
  "dcmmeta_shape": [108, 108, 64, 373],
  "dcmmeta_slice_dim": 2,
  "dcmmeta_version": 0.6,
  "global": {
    "const": {
      "AccessionNumber": "",
      "AcquisitionMatrix": [108, 0, 0, 108],
      "AngioFlag": "N",
      "BitsAllocated": 16,
      "BitsStored": 12,
      "BodyPartExamined": "BRAIN",
      "Columns": 864,
      "EchoNumbers": 1,
      "EchoTime": 31.0,
      "EchoTrainLength": 95,
      "FlipAngle": 64.0,
      "HighBit": 11,
      "ImageOrientationPatient": [0.99883985658735, 0.0369957691015, 0.03082618953337, -0.0209227441838, 0.90996972521468, -0.4141465175135],
      "ImagePositionPatient": [-836.87097381073, -840.64335507965, 283.20679177542],
      "ImageType": [
        "ORIGINAL",
        "PRIMARY",
        "M",
        "ND",
        "MOSAIC"
],
      "ImagedNucleus": "1H",
      "ImagingFrequency": 123.257388,
      "InPlanePhaseEncodingDirection": "COL",
      "MRAcquisitionType": "2D",
      "MagneticFieldStrength": 3.0,
      "Manufacturer": "SIEMENS",
      "ManufacturerModelName": "Prisma",
      "Modality": "MR",
      "NumberOfAverages": 1.0,
      "NumberOfPhaseEncodingSteps": 95,
      "PercentPhaseFieldOfView": 100.0,
      "PercentSampling": 100.0,
      "PerformedProcedureStepStartTime": "110853.972000",
      "PhotometricInterpretation": "MONOCHROME2",
      "PixelBandwidth": 2205.0,
      "PixelRepresentation": 0,
      "PixelSpacing": [1.990740776062, 1.990740776062],
      "PositionReferenceIndicator": "",
      "ProtocolName": "Run3_bold_s4_TR1.28",
      "RepetitionTime": 1280.0,
      "Rows": 864,
      "SAR": 0.07403487852588,
      "SamplesPerPixel": 1,
      "ScanOptions": [
        "PFP",
        "FS"
],
      "ScanningSequence": "EP",
      "SequenceName": "*epfid2d1_108",
      "SequenceVariant": "SK",
      "SeriesDescription": "Run3_bold_s4_TR1.28",
      "SeriesNumber": 8,
      "SeriesTime": "114626.937000",
      "SliceLocation": -53.276339334504,
      "SliceThickness": 2.0,
      "SmallestImagePixelValue": 0,
      "SoftwareVersions": "syngo MR E11",
      "SpacingBetweenSlices": 1.9999999297645,
      "SpecificCharacterSet": "ISO_IR 100",
      "StudyID": "1",
      "StudyTime": "110853.903000",
      "TransmitCoilName": "Body",
      "VariableFlipAngleFlag": "N",
      "WindowCenterWidthExplanation": "Algo1",
      "dBdt": 0.0},
    "slices": {}
  },
  "time": {
    "samples": {
      "AcquisitionNumber": [1, 2, 3, 4, 5, 6, 7, 8, 9, 10, 11, 12, 13, 14, 15, 16, 17, 18, 19, 20, 21, 22, 23, 24, 25, 26, 27, 28, 29, 30, 31, 32, 33, 34, 35, 36, 37, 38, 39, 40, 41, 42, 43, 44, 45, 46, 47, 48, 49, 50, 51, 52, 53, 54, 55, 56, 57, 58, 59, 60, 61, 62, 63, 64, 65, 66, 67, 68, 69, 70, 71, 72, 73, 74, 75, 76, 77, 78, 79, 80, 81, 82, 83, 84, 85, 86, 87, 88, 89, 90, 91, 92, 93, 94, 95, 96, 97, 98, 99, 100, 101, 102, 103, 104, 105, 106, 107, 108, 109, 110, 111, 112, 113, 114, 115, 116, 117, 118, 119, 120, 121, 122, 123, 124, 125, 126, 127, 128, 129, 130, 131, 132, 133, 134, 135, 136, 137, 138, 139, 140, 141, 142, 143, 144, 145, 146, 147, 148, 149, 150, 151, 152, 153, 154, 155, 156, 157, 158, 159, 160, 161, 162, 163, 164, 165, 166, 167, 168, 169, 170, 171, 172, 173, 174, 175, 176, 177, 178, 179, 180, 181, 182, 183, 184, 185, 186, 187, 188, 189, 190, 191, 192, 193, 194, 195, 196, 197, 198, 199, 200, 201, 202, 203, 204, 205, 206, 207, 208, 209, 210, 211, 212, 213, 214, 215, 216, 217, 218, 219, 220, 221, 222, 223, 224, 225, 226, 227, 228, 229, 230, 231, 232, 233, 234, 235, 236, 237, 238, 239, 240, 241, 242, 243, 244, 245, 246, 247, 248, 249, 250, 251, 252, 253, 254, 255, 256, 257, 258, 259, 260, 261, 262, 263, 264, 265, 266, 267, 268, 269, 270, 271, 272, 273, 274, 275, 276, 277, 278, 279, 280, 281, 282, 283, 284, 285, 286, 287, 288, 289, 290, 291, 292, 293, 294, 295, 296, 297, 298, 299, 300, 301, 302, 303, 304, 305, 306, 307, 308, 309, 310, 311, 312, 313, 314, 315, 316, 317, 318, 319, 320, 321, 322, 323, 324, 325, 326, 327, 328, 329, 330, 331, 332, 333, 334, 335, 336, 337, 338, 339, 340, 341, 342, 343, 344, 345, 346, 347, 348, 349, 350, 351, 352, 353, 354, 355, 356, 357, 358, 359, 360, 361, 362, 363, 364, 365, 366, 367, 368, 369, 370, 371, 372, 373],
      "AcquisitionTime": ["114550.150000", "114551.430000", "114552.710000", "114553.990000", "114555.270000", "114556.550000", "114557.830000", "114559.110000", "114600.390000", "114601.670000", "114602.950000", "114604.230000", "114605.510000", "114606.790000", "114608.070000", "114609.350000", "114610.630000", "114611.910000", "114613.190000", "114614.470000", "114615.750000", "114617.030000", "114618.310000", "114619.590000", "114620.870000", "114622.150000", "114623.430000", "114624.710000", "114625.990000", "114627.270000", "114628.550000", "114629.830000", "114631.110000", "114632.390000", "114633.670000", "114634.950000", "114636.230000", "114637.510000", "114638.790000", "114640.070000", "114641.350000", "114642.630000", "114643.910000", "114645.190000", "114646.470000", "114647.750000", "114649.030000", "114650.310000", "114651.590000", "114652.870000", "114654.150000", "114655.430000", "114656.710000", "114657.990000", "114659.270000", "114700.550000", "114701.830000", "114703.110000", "114704.390000", "114705.670000", "114706.950000", "114708.230000", "114709.510000", "114710.790000", "114712.070000", "114713.350000", "114714.630000", "114715.910000", "114717.190000", "114718.470000", "114719.750000", "114721.030000", "114722.310000", "114723.590000", "114724.870000", "114726.150000", "114727.430000", "114728.710000", "114729.990000", "114731.270000", "114732.550000", "114733.830000", "114735.110000", "114736.390000", "114737.670000", "114738.950000", "114740.230000", "114741.510000", "114742.790000", "114744.070000", "114745.350000", "114746.630000", "114747.910000", "114749.190000", "114750.470000", "114751.750000", "114753.030000", "114754.310000", "114755.590000", "114756.870000", "114758.150000", "114759.430000", "114800.710000", "114801.990000", "114803.270000", "114804.550000", "114805.830000", "114807.110000", "114808.390000", "114809.670000", "114810.950000", "114812.230000", "114813.510000", "114814.790000", "114816.070000", "114817.350000", "114818.630000", "114819.910000", "114821.190000", "114822.470000", "114823.750000", "114825.030000", "114826.310000", "114827.590000", "114828.870000", "114830.150000", "114831.430000", "114832.710000", "114833.990000", "114835.270000", "114836.550000", "114837.830000", "114839.110000", "114840.390000", "114841.670000", "114842.950000", "114844.230000", "114845.510000", "114846.790000", "114848.070000", "114849.350000", "114850.630000", "114851.910000", "114853.190000", "114854.470000", "114855.750000", "114857.030000", "114858.310000", "114859.590000", "114900.870000", "114902.150000", "114903.430000", "114904.710000", "114905.990000", "114907.270000", "114908.550000", "114909.830000", "114911.110000", "114912.390000", "114913.670000", "114914.950000", "114916.230000", "114917.510000", "114918.790000", "114920.070000", "114921.350000", "114922.630000", "114923.910000", "114925.190000", "114926.470000", "114927.750000", "114929.030000", "114930.310000", "114931.590000", "114932.870000", "114934.150000", "114935.430000", "114936.710000", "114937.990000", "114939.270000", "114940.550000", "114941.830000", "114943.110000", "114944.390000", "114945.670000", "114946.950000", "114948.230000", "114949.510000", "114950.790000", "114952.070000", "114953.350000", "114954.630000", "114955.910000", "114957.190000", "114958.470000", "114959.750000", "115001.030000", "115002.310000", "115003.590000", "115004.870000", "115006.150000", "115007.430000", "115008.710000", "115009.990000", "115011.270000", "115012.550000", "115013.830000", "115015.110000", "115016.390000", "115017.670000", "115018.950000", "115020.230000", "115021.510000", "115022.790000", "115024.070000", "115025.350000", "115026.630000", "115027.910000", "115029.190000", "115030.470000", "115031.750000", "115033.030000", "115034.310000", "115035.590000", "115036.870000", "115038.150000", "115039.430000", "115040.710000", "115041.990000", "115043.270000", "115044.550000", "115045.830000", "115047.110000", "115048.390000", "115049.670000", "115050.950000", "115052.230000", "115053.510000", "115054.790000", "115056.070000", "115057.350000", "115058.630000", "115059.910000", "115101.190000", "115102.470000", "115103.750000", "115105.030000", "115106.310000", "115107.590000", "115108.870000", "115110.150000", "115111.430000", "115112.710000", "115113.990000", "115115.270000", "115116.550000", "115117.830000", "115119.110000", "115120.390000", "115121.670000", "115122.950000", "115124.230000", "115125.510000", "115126.790000", "115128.070000", "115129.350000", "115130.630000", "115131.910000", "115133.190000", "115134.470000", "115135.750000", "115137.030000", "115138.310000", "115139.590000", "115140.870000", "115142.150000", "115143.430000", "115144.710000", "115145.990000", "115147.270000", "115148.550000", "115149.830000", "115151.110000", "115152.390000", "115153.670000", "115154.950000", "115156.230000", "115157.510000", "115158.790000", "115200.070000", "115201.350000", "115202.630000", "115203.910000", "115205.190000", "115206.470000", "115207.750000", "115209.030000", "115210.310000", "115211.590000", "115212.870000", "115214.150000", "115215.430000", "115216.710000", "115217.990000", "115219.270000", "115220.550000", "115221.830000", "115223.110000", "115224.390000", "115225.670000", "115226.950000", "115228.230000", "115229.510000", "115230.790000", "115232.070000", "115233.350000", "115234.630000", "115235.910000", "115237.190000", "115238.470000", "115239.750000", "115241.030000", "115242.310000", "115243.590000", "115244.870000", "115246.150000", "115247.430000", "115248.710000", "115249.990000", "115251.270000", "115252.550000", "115253.830000", "115255.110000", "115256.390000", "115257.670000", "115258.950000", "115300.230000", "115301.510000", "115302.790000", "115304.070000", "115305.350000", "115306.630000", "115307.910000", "115309.190000", "115310.470000", "115311.750000", "115313.030000", "115314.310000", "115315.590000", "115316.870000", "115318.150000", "115319.430000", "115320.710000", "115321.990000", "115323.270000", "115324.550000", "115325.830000", "115327.110000", "115328.390000", "115329.670000", "115330.950000", "115332.230000", "115333.510000", "115334.790000", "115336.070000", "115337.350000", "115338.630000", "115339.910000", "115341.190000", "115342.470000", "115343.750000", "115345.030000", "115346.310000"],
      "ContentTime": ["114626.941000", "114626.953000", "114626.956000", "114626.968000", "114626.971000", "114626.974000", "114626.977000", "114626.980000", "114626.983000", "114626.986000", "114626.989000", "114626.992000", "114626.995000", "114626.998000", "114627.002000", "114627.005000", "114627.007000", "114627.010000", "114627.013000", "114627.016000", "114627.019000", "114627.022000", "114627.025000", "114627.028000", "114627.031000", "114627.034000", "114627.037000", "114627.040000", "114706.936000", "114706.939000", "114706.942000", "114706.945000", "114706.948000", "114706.951000", "114706.954000", "114706.957000", "114706.960000", "114706.963000", "114706.966000", "114706.969000", "114706.972000", "114706.975000", "114706.978000", "114706.981000", "114706.984000", "114706.986000", "114706.989000", "114707.001000", "114707.004000", "114707.007000", "114707.009000", "114707.012000", "114707.015000", "114707.018000", "114707.021000", "114707.024000", "114707.027000", "114707.030000", "114707.033000", "114746.935000", "114746.942000", "114746.945000", "114746.948000", "114746.951000", "114746.954000", "114746.957000", "114746.961000", "114746.964000", "114746.967000", "114746.969000", "114746.973000", "114746.976000", "114746.978000", "114746.988000", "114746.991000", "114746.994000", "114746.997000", "114747.000000", "114747.003000", "114747.006000", "114747.009000", "114747.012000", "114747.015000", "114747.018000", "114747.021000", "114747.024000", "114747.026000", "114747.029000", "114747.032000", "114747.035000", "114826.936000", "114826.939000", "114826.947000", "114826.950000", "114826.953000", "114826.956000", "114826.959000", "114826.970000", "114826.973000", "114826.976000", "114826.979000", "114826.982000", "114826.985000", "114826.988000", "114826.991000", "114826.994000", "114826.997000", "114827.001000", "114827.004000", "114827.007000", "114827.009000", "114827.012000", "114827.015000", "114827.018000", "114827.021000", "114827.024000", "114827.027000", "114827.030000", "114827.033000", "114827.036000", "114827.039000", "114827.042000", "114906.936000", "114906.939000", "114906.942000", "114906.945000", "114906.948000", "114906.951000", "114906.954000", "114906.957000", "114906.960000", "114906.963000", "114906.966000", "114906.969000", "114906.972000", "114906.975000", "114906.978000", "114906.981000", "114906.984000", "114906.987000", "114906.990000", "114906.993000", "114906.996000", "114907.000000", "114907.002000", "114907.005000", "114907.008000", "114907.011000", "114907.014000", "114907.017000", "114907.020000", "114907.023000", "114907.026000", "114946.935000", "114946.938000", "114946.941000", "114946.944000", "114946.947000", "114946.950000", "114946.953000", "114946.956000", "114946.959000", "114946.962000", "114946.965000", "114946.968000", "114946.971000", "114946.974000", "114946.977000", "114946.980000", "114946.983000", "114946.986000", "114946.989000", "114946.992000", "114946.995000", "114946.998000", "114947.002000", "114947.005000", "114947.008000", "114947.024000", "114947.027000", "114947.030000", "114947.033000", "114947.036000", "114947.038000", "115026.936000", "115026.939000", "115026.942000", "115026.945000", "115026.948000", "115026.951000", "115026.954000", "115026.957000", "115026.960000", "115026.963000", "115026.966000", "115026.969000", "115026.972000", "115026.974000", "115026.977000", "115026.980000", "115026.983000", "115026.986000", "115026.989000", "115026.992000", "115026.995000", "115026.998000", "115027.002000", "115027.005000", "115027.008000", "115027.011000", "115027.014000", "115027.017000", "115027.020000", "115027.023000", "115027.027000", "115027.030000", "115106.936000", "115106.939000", "115106.942000", "115106.945000", "115106.948000", "115106.951000", "115106.954000", "115106.957000", "115106.960000", "115106.963000", "115106.972000", "115106.975000", "115106.978000", "115106.981000", "115106.984000", "115106.987000", "115106.990000", "115106.993000", "115106.996000", "115107.000000", "115107.003000", "115107.006000", "115107.009000", "115107.012000", "115107.015000", "115107.018000", "115107.021000", "115107.024000", "115107.027000", "115107.030000", "115107.033000", "115126.936000", "115126.939000", "115126.942000", "115126.945000", "115126.948000", "115126.951000", "115126.954000", "115126.957000", "115126.960000", "115126.963000", "115126.966000", "115126.969000", "115126.972000", "115126.975000", "115126.978000", "115206.935000", "115206.938000", "115206.941000", "115206.944000", "115206.947000", "115206.950000", "115206.953000", "115206.956000", "115206.959000", "115206.962000", "115206.965000", "115206.967000", "115206.970000", "115206.973000", "115206.977000", "115206.980000", "115206.982000", "115206.985000", "115206.988000", "115206.991000", "115206.994000", "115206.997000", "115207.001000", "115207.004000", "115207.007000", "115207.010000", "115207.013000", "115207.016000", "115207.019000", "115207.022000", "115207.025000", "115207.028000", "115246.936000", "115246.939000", "115246.942000", "115246.945000", "115246.948000", "115246.951000", "115246.954000", "115246.957000", "115246.960000", "115246.963000", "115246.966000", "115246.969000", "115246.972000", "115246.975000", "115246.978000", "115246.981000", "115246.987000", "115246.990000", "115246.993000", "115246.996000", "115247.000000", "115247.003000", "115247.006000", "115247.009000", "115247.013000", "115247.016000", "115247.019000", "115247.022000", "115247.025000", "115247.028000", "115247.031000", "115326.936000", "115326.939000", "115326.942000", "115326.945000", "115326.948000", "115326.951000", "115326.954000", "115326.957000", "115326.960000", "115326.963000", "115326.966000", "115326.970000", "115326.973000", "115326.975000", "115326.978000", "115326.982000", "115326.984000", "115326.987000", "115326.990000", "115326.994000", "115326.997000", "115327.001000", "115327.003000", "115327.007000", "115327.010000", "115327.013000", "115327.015000", "115327.019000", "115327.022000", "115327.024000", "115327.027000", "115347.870000", "115347.874000", "115347.877000", "115347.881000", "115347.885000", "115347.889000", "115347.893000", "115347.896000", "115347.900000", "115347.904000", "115347.908000", "115347.912000", "115347.915000", "115347.919000", "115347.933000", "115347.937000", "115347.940000"],
      "InstanceCreationTime": ["114626.941000", "114626.953000", "114626.956000", "114626.968000", "114626.971000", "114626.974000", "114626.977000", "114626.980000", "114626.983000", "114626.986000", "114626.989000", "114626.992000", "114626.995000", "114626.998000", "114627.002000", "114627.005000", "114627.007000", "114627.010000", "114627.013000", "114627.016000", "114627.019000", "114627.022000", "114627.025000", "114627.028000", "114627.031000", "114627.034000", "114627.037000", "114627.040000", "114706.936000", "114706.939000", "114706.942000", "114706.945000", "114706.948000", "114706.951000", "114706.954000", "114706.957000", "114706.960000", "114706.963000", "114706.966000", "114706.969000", "114706.972000", "114706.975000", "114706.978000", "114706.981000", "114706.984000", "114706.986000", "114706.989000", "114707.001000", "114707.004000", "114707.007000", "114707.009000", "114707.012000", "114707.015000", "114707.018000", "114707.021000", "114707.024000", "114707.027000", "114707.030000", "114707.033000", "114746.935000", "114746.942000", "114746.945000", "114746.948000", "114746.951000", "114746.954000", "114746.957000", "114746.961000", "114746.964000", "114746.967000", "114746.969000", "114746.973000", "114746.976000", "114746.978000", "114746.988000", "114746.991000", "114746.994000", "114746.997000", "114747.000000", "114747.003000", "114747.006000", "114747.009000", "114747.012000", "114747.015000", "114747.018000", "114747.021000", "114747.024000", "114747.026000", "114747.029000", "114747.032000", "114747.035000", "114826.936000", "114826.939000", "114826.947000", "114826.950000", "114826.953000", "114826.956000", "114826.959000", "114826.970000", "114826.973000", "114826.976000", "114826.979000", "114826.982000", "114826.985000", "114826.988000", "114826.991000", "114826.994000", "114826.997000", "114827.001000", "114827.004000", "114827.007000", "114827.009000", "114827.012000", "114827.015000", "114827.018000", "114827.021000", "114827.024000", "114827.027000", "114827.030000", "114827.033000", "114827.036000", "114827.039000", "114827.042000", "114906.936000", "114906.939000", "114906.942000", "114906.945000", "114906.948000", "114906.951000", "114906.954000", "114906.957000", "114906.960000", "114906.963000", "114906.966000", "114906.969000", "114906.972000", "114906.975000", "114906.978000", "114906.981000", "114906.984000", "114906.987000", "114906.990000", "114906.993000", "114906.996000", "114907.000000", "114907.002000", "114907.005000", "114907.008000", "114907.011000", "114907.014000", "114907.017000", "114907.020000", "114907.023000", "114907.026000", "114946.935000", "114946.938000", "114946.941000", "114946.944000", "114946.947000", "114946.950000", "114946.953000", "114946.956000", "114946.959000", "114946.962000", "114946.965000", "114946.968000", "114946.971000", "114946.974000", "114946.977000", "114946.980000", "114946.983000", "114946.986000", "114946.989000", "114946.992000", "114946.995000", "114946.998000", "114947.002000", "114947.005000", "114947.008000", "114947.024000", "114947.027000", "114947.030000", "114947.033000", "114947.036000", "114947.038000", "115026.936000", "115026.939000", "115026.942000", "115026.945000", "115026.948000", "115026.951000", "115026.954000", "115026.957000", "115026.960000", "115026.963000", "115026.966000", "115026.969000", "115026.972000", "115026.974000", "115026.977000", "115026.980000", "115026.983000", "115026.986000", "115026.989000", "115026.992000", "115026.995000", "115026.998000", "115027.002000", "115027.005000", "115027.008000", "115027.011000", "115027.014000", "115027.017000", "115027.020000", "115027.023000", "115027.027000", "115027.030000", "115106.936000", "115106.939000", "115106.942000", "115106.945000", "115106.948000", "115106.951000", "115106.954000", "115106.957000", "115106.960000", "115106.963000", "115106.972000", "115106.975000", "115106.978000", "115106.981000", "115106.984000", "115106.987000", "115106.990000", "115106.993000", "115106.996000", "115107.000000", "115107.003000", "115107.006000", "115107.009000", "115107.012000", "115107.015000", "115107.018000", "115107.021000", "115107.024000", "115107.027000", "115107.030000", "115107.033000", "115126.936000", "115126.939000", "115126.942000", "115126.945000", "115126.948000", "115126.951000", "115126.954000", "115126.957000", "115126.960000", "115126.963000", "115126.966000", "115126.969000", "115126.972000", "115126.975000", "115126.978000", "115206.935000", "115206.938000", "115206.941000", "115206.944000", "115206.947000", "115206.950000", "115206.953000", "115206.956000", "115206.959000", "115206.962000", "115206.965000", "115206.967000", "115206.970000", "115206.973000", "115206.977000", "115206.980000", "115206.982000", "115206.985000", "115206.988000", "115206.991000", "115206.994000", "115206.997000", "115207.001000", "115207.004000", "115207.007000", "115207.010000", "115207.013000", "115207.016000", "115207.019000", "115207.022000", "115207.025000", "115207.028000", "115246.936000", "115246.939000", "115246.942000", "115246.945000", "115246.948000", "115246.951000", "115246.954000", "115246.957000", "115246.960000", "115246.963000", "115246.966000", "115246.969000", "115246.972000", "115246.975000", "115246.978000", "115246.981000", "115246.987000", "115246.990000", "115246.993000", "115246.996000", "115247.000000", "115247.003000", "115247.006000", "115247.009000", "115247.013000", "115247.016000", "115247.019000", "115247.022000", "115247.025000", "115247.028000", "115247.031000", "115326.936000", "115326.939000", "115326.942000", "115326.945000", "115326.948000", "115326.951000", "115326.954000", "115326.957000", "115326.960000", "115326.963000", "115326.966000", "115326.970000", "115326.973000", "115326.975000", "115326.978000", "115326.982000", "115326.984000", "115326.987000", "115326.990000", "115326.994000", "115326.997000", "115327.001000", "115327.003000", "115327.007000", "115327.010000", "115327.013000", "115327.015000", "115327.019000", "115327.022000", "115327.024000", "115327.027000", "115347.870000", "115347.874000", "115347.877000", "115347.881000", "115347.885000", "115347.889000", "115347.893000", "115347.896000", "115347.900000", "115347.904000", "115347.908000", "115347.912000", "115347.915000", "115347.919000", "115347.933000", "115347.937000", "115347.940000"],
      "InstanceNumber": [1, 2, 3, 4, 5, 6, 7, 8, 9, 10, 11, 12, 13, 14, 15, 16, 17, 18, 19, 20, 21, 22, 23, 24, 25, 26, 27, 28, 29, 30, 31, 32, 33, 34, 35, 36, 37, 38, 39, 40, 41, 42, 43, 44, 45, 46, 47, 48, 49, 50, 51, 52, 53, 54, 55, 56, 57, 58, 59, 60, 61, 62, 63, 64, 65, 66, 67, 68, 69, 70, 71, 72, 73, 74, 75, 76, 77, 78, 79, 80, 81, 82, 83, 84, 85, 86, 87, 88, 89, 90, 91, 92, 93, 94, 95, 96, 97, 98, 99, 100, 101, 102, 103, 104, 105, 106, 107, 108, 109, 110, 111, 112, 113, 114, 115, 116, 117, 118, 119, 120, 121, 122, 123, 124, 125, 126, 127, 128, 129, 130, 131, 132, 133, 134, 135, 136, 137, 138, 139, 140, 141, 142, 143, 144, 145, 146, 147, 148, 149, 150, 151, 152, 153, 154, 155, 156, 157, 158, 159, 160, 161, 162, 163, 164, 165, 166, 167, 168, 169, 170, 171, 172, 173, 174, 175, 176, 177, 178, 179, 180, 181, 182, 183, 184, 185, 186, 187, 188, 189, 190, 191, 192, 193, 194, 195, 196, 197, 198, 199, 200, 201, 202, 203, 204, 205, 206, 207, 208, 209, 210, 211, 212, 213, 214, 215, 216, 217, 218, 219, 220, 221, 222, 223, 224, 225, 226, 227, 228, 229, 230, 231, 232, 233, 234, 235, 236, 237, 238, 239, 240, 241, 242, 243, 244, 245, 246, 247, 248, 249, 250, 251, 252, 253, 254, 255, 256, 257, 258, 259, 260, 261, 262, 263, 264, 265, 266, 267, 268, 269, 270, 271, 272, 273, 274, 275, 276, 277, 278, 279, 280, 281, 282, 283, 284, 285, 286, 287, 288, 289, 290, 291, 292, 293, 294, 295, 296, 297, 298, 299, 300, 301, 302, 303, 304, 305, 306, 307, 308, 309, 310, 311, 312, 313, 314, 315, 316, 317, 318, 319, 320, 321, 322, 323, 324, 325, 326, 327, 328, 329, 330, 331, 332, 333, 334, 335, 336, 337, 338, 339, 340, 341, 342, 343, 344, 345, 346, 347, 348, 349, 350, 351, 352, 353, 354, 355, 356, 357, 358, 359, 360, 361, 362, 363, 364, 365, 366, 367, 368, 369, 370, 371, 372, 373],
