{
  "AcquisitionMatrixPE": 108,
  "AcquisitionNumber": 1,
  "AcquisitionTime": "11:30:47.427500",
  "BandwidthPerPixelPhaseEncode": 15.964,
  "BaseResolution": 108,
  "BodyPartExamined": "BRAIN",
  "ConsistencyInfo": "N4_VE11C_LATEST_20160120",
  "ConversionSoftware": "dcm2niix",
  "ConversionSoftwareVersion": "v1.0.20180622 GCC6.3.0",
  "DerivedVendorReportedEchoSpacing": 0.000580009,
  "DeviceSerialNumber": "66054",
  "DwellTime": 2.1e-06,
  "EchoTime": 0.031,
  "EchoTrainLength": 95,
  "EffectiveEchoSpacing": 0.000580009,
  "FlipAngle": 64,
  "ImageOrientationPatientDICOM": [0.99884, 0.0369958, 0.0308262, -0.0209227, 0.90997, -0.414147],
  "ImageType": [
    "ORIGINAL",
    "PRIMARY",
    "M",
    "ND",
    "MOSAIC"
],
  "InPlanePhaseEncodingDirectionDICOM": "COL",
  "InstitutionAddress": "Chemin_des_Mines_9_Geneve_District_CH_1211",
  "InstitutionName": "Fondation_Campus_Biotech_Geneva",
  "InstitutionalDepartmentName": "Department",
  "MRAcquisitionType": "2D",
  "MagneticFieldStrength": 3,
  "Manufacturer": "Siemens",
  "ManufacturersModelName": "Prisma",
  "Modality": "MR",
  "MultibandAccelerationFactor": 4,
  "PartialFourier": 0.875,
  "PatientPosition": "HFS",
  "PercentPhaseFOV": 100,
  "PhaseEncodingDirection": "j-",
  "PhaseEncodingSteps": 95,
  "PhaseResolution": 1,
  "PixelBandwidth": 2205,
  "ProcedureStepDescription": "J.DRM_Michael",
  "ProtocolName": "Run2_bold_s4_TR1.28",
  "PulseSequenceDetails": "%SiemensSeq%_ep2d_bold",
  "ReceiveCoilActiveElements": "HC1-7;NC1,2",
  "ReceiveCoilName": "HeadNeck_64",
  "ReconMatrixPE": 108,
  "RepetitionTime": 1.28,
  "SAR": 0.0740349,
  "ScanOptions": "PFP_FS",
  "ScanningSequence": "EP",
  "SequenceName": "_epfid2d1_108",
  "SequenceVariant": "SK",
  "SeriesDescription": "Run2_bold_s4_TR1.28",
  "SeriesNumber": 6,
  "ShimSetting": [-1244, -11664, 6445, 611, 127, 47, 123, 70],
  "SliceThickness": 2,
  "SliceTiming": [0.9425, 0, 0.6275, 0.0775, 0.7075, 0.1575, 0.785, 0.235, 0.865, 0.3925, 1.0225, 0.47, 1.1, 0.55, 1.18, 0.315, 0.9425, 0, 0.6275, 0.0775, 0.7075, 0.1575, 0.785, 0.235, 0.865, 0.3925, 1.0225, 0.47, 1.1, 0.55, 1.18, 0.315, 0.9425, 0, 0.6275, 0.0775, 0.7075, 0.1575, 0.785, 0.235, 0.865, 0.3925, 1.0225, 0.47, 1.1, 0.55, 1.18, 0.315, 0.9425, 0, 0.6275, 0.0775, 0.7075, 0.1575, 0.785, 0.235, 0.865, 0.3925, 1.0225, 0.47, 1.1, 0.55, 1.18, 0.315],
  "SoftwareVersions": "syngo_MR_E11",
  "SpacingBetweenSlices": 2,
  "StationName": "AWP66054",
  "TaskName": "main",
  "TotalReadoutTime": 0.0620609,
  "TxRefAmp": 274.915,
  "dcmmeta_affine": [
    [-1.9884312152862549, -0.041651759296655655, 0.08674513548612595, 105.445068359375],
    [-0.07364898920059204, 1.8115137815475464, -0.826042115688324, -65.7801742553711],
    [0.06136695295572281, 0.8244583606719971, 1.8193761110305786, -93.45880126953125],
    [0.0, 0.0, 0.0, 1.0]
],
  "dcmmeta_reorient_transform": [
    [0.0, -1.0, 0.0, 107.0],
    [1.0, 0.0, 0.0, 0.0],
    [0.0, 0.0, 1.0, 0.0],
    [0.0, 0.0, 0.0, 1.0]
],
  "dcmmeta_shape": [108, 108, 64, 373],
  "dcmmeta_slice_dim": 2,
  "dcmmeta_version": 0.6,
  "global": {
    "const": {
      "AccessionNumber": "",
      "AcquisitionMatrix": [108, 0, 0, 108],
      "AngioFlag": "N",
      "BitsAllocated": 16,
      "BitsStored": 12,
      "BodyPartExamined": "BRAIN",
      "Columns": 864,
      "EchoNumbers": 1,
      "EchoTime": 31.0,
      "EchoTrainLength": 95,
      "FlipAngle": 64.0,
      "HighBit": 11,
      "ImageOrientationPatient": [0.99883985658735, 0.0369957691015, 0.03082618953337, -0.0209227441838, 0.90996972521468, -0.4141465175135],
      "ImagePositionPatient": [-836.87097381073, -840.64335507965, 283.20679177542],
      "ImageType": [
        "ORIGINAL",
        "PRIMARY",
        "M",
        "ND",
        "MOSAIC"
],
      "ImagedNucleus": "1H",
      "ImagingFrequency": 123.257386,
      "InPlanePhaseEncodingDirection": "COL",
      "MRAcquisitionType": "2D",
      "MagneticFieldStrength": 3.0,
      "Manufacturer": "SIEMENS",
      "ManufacturerModelName": "Prisma",
      "Modality": "MR",
      "NumberOfAverages": 1.0,
      "NumberOfPhaseEncodingSteps": 95,
      "PercentPhaseFieldOfView": 100.0,
      "PercentSampling": 100.0,
      "PerformedProcedureStepStartTime": "110853.972000",
      "PhotometricInterpretation": "MONOCHROME2",
      "PixelBandwidth": 2205.0,
      "PixelRepresentation": 0,
      "PixelSpacing": [1.990740776062, 1.990740776062],
      "PositionReferenceIndicator": "",
      "ProtocolName": "Run2_bold_s4_TR1.28",
      "RepetitionTime": 1280.0,
      "Rows": 864,
      "SAR": 0.07403487852588,
      "SamplesPerPixel": 1,
      "ScanOptions": [
        "PFP",
        "FS"
],
      "ScanningSequence": "EP",
      "SequenceName": "*epfid2d1_108",
      "SequenceVariant": "SK",
      "SeriesDescription": "Run2_bold_s4_TR1.28",
      "SeriesNumber": 6,
      "SeriesTime": "113127.008000",
      "SliceLocation": -53.276339334504,
      "SliceThickness": 2.0,
      "SmallestImagePixelValue": 0,
      "SoftwareVersions": "syngo MR E11",
      "SpacingBetweenSlices": 1.9999999297645,
      "SpecificCharacterSet": "ISO_IR 100",
      "StudyID": "1",
      "StudyTime": "110853.903000",
      "TransmitCoilName": "Body",
      "VariableFlipAngleFlag": "N",
      "WindowCenterWidthExplanation": "Algo1",
      "dBdt": 0.0},
    "slices": {}
  },
  "time": {
    "samples": {
      "AcquisitionNumber": [1, 2, 3, 4, 5, 6, 7, 8, 9, 10, 11, 12, 13, 14, 15, 16, 17, 18, 19, 20, 21, 22, 23, 24, 25, 26, 27, 28, 29, 30, 31, 32, 33, 34, 35, 36, 37, 38, 39, 40, 41, 42, 43, 44, 45, 46, 47, 48, 49, 50, 51, 52, 53, 54, 55, 56, 57, 58, 59, 60, 61, 62, 63, 64, 65, 66, 67, 68, 69, 70, 71, 72, 73, 74, 75, 76, 77, 78, 79, 80, 81, 82, 83, 84, 85, 86, 87, 88, 89, 90, 91, 92, 93, 94, 95, 96, 97, 98, 99, 100, 101, 102, 103, 104, 105, 106, 107, 108, 109, 110, 111, 112, 113, 114, 115, 116, 117, 118, 119, 120, 121, 122, 123, 124, 125, 126, 127, 128, 129, 130, 131, 132, 133, 134, 135, 136, 137, 138, 139, 140, 141, 142, 143, 144, 145, 146, 147, 148, 149, 150, 151, 152, 153, 154, 155, 156, 157, 158, 159, 160, 161, 162, 163, 164, 165, 166, 167, 168, 169, 170, 171, 172, 173, 174, 175, 176, 177, 178, 179, 180, 181, 182, 183, 184, 185, 186, 187, 188, 189, 190, 191, 192, 193, 194, 195, 196, 197, 198, 199, 200, 201, 202, 203, 204, 205, 206, 207, 208, 209, 210, 211, 212, 213, 214, 215, 216, 217, 218, 219, 220, 221, 222, 223, 224, 225, 226, 227, 228, 229, 230, 231, 232, 233, 234, 235, 236, 237, 238, 239, 240, 241, 242, 243, 244, 245, 246, 247, 248, 249, 250, 251, 252, 253, 254, 255, 256, 257, 258, 259, 260, 261, 262, 263, 264, 265, 266, 267, 268, 269, 270, 271, 272, 273, 274, 275, 276, 277, 278, 279, 280, 281, 282, 283, 284, 285, 286, 287, 288, 289, 290, 291, 292, 293, 294, 295, 296, 297, 298, 299, 300, 301, 302, 303, 304, 305, 306, 307, 308, 309, 310, 311, 312, 313, 314, 315, 316, 317, 318, 319, 320, 321, 322, 323, 324, 325, 326, 327, 328, 329, 330, 331, 332, 333, 334, 335, 336, 337, 338, 339, 340, 341, 342, 343, 344, 345, 346, 347, 348, 349, 350, 351, 352, 353, 354, 355, 356, 357, 358, 359, 360, 361, 362, 363, 364, 365, 366, 367, 368, 369, 370, 371, 372, 373],
      "AcquisitionTime": ["113047.427500", "113048.707500", "113049.987500", "113051.267500", "113052.547500", "113053.827500", "113055.107500", "113056.387500", "113057.667500", "113058.947500", "113100.227500", "113101.507500", "113102.787500", "113104.067500", "113105.347500", "113106.627500", "113107.907500", "113109.187500", "113110.467500", "113111.747500", "113113.027500", "113114.307500", "113115.587500", "113116.867500", "113118.147500", "113119.427500", "113120.707500", "113121.987500", "113123.267500", "113124.547500", "113125.827500", "113127.107500", "113128.387500", "113129.667500", "113130.947500", "113132.227500", "113133.507500", "113134.787500", "113136.067500", "113137.347500", "113138.627500", "113139.907500", "113141.187500", "113142.467500", "113143.747500", "113145.027500", "113146.307500", "113147.587500", "113148.867500", "113150.147500", "113151.427500", "113152.707500", "113153.987500", "113155.267500", "113156.547500", "113157.827500", "113159.107500", "113200.387500", "113201.667500", "113202.947500", "113204.227500", "113205.507500", "113206.787500", "113208.067500", "113209.347500", "113210.627500", "113211.907500", "113213.187500", "113214.467500", "113215.747500", "113217.027500", "113218.307500", "113219.587500", "113220.867500", "113222.147500", "113223.427500", "113224.707500", "113225.987500", "113227.267500", "113228.547500", "113229.827500", "113231.107500", "113232.387500", "113233.667500", "113234.947500", "113236.227500", "113237.507500", "113238.787500", "113240.067500", "113241.347500", "113242.627500", "113243.907500", "113245.187500", "113246.467500", "113247.747500", "113249.027500", "113250.307500", "113251.587500", "113252.867500", "113254.147500", "113255.427500", "113256.707500", "113257.987500", "113259.267500", "113300.547500", "113301.827500", "113303.107500", "113304.387500", "113305.667500", "113306.947500", "113308.227500", "113309.507500", "113310.787500", "113312.067500", "113313.347500", "113314.627500", "113315.907500", "113317.187500", "113318.467500", "113319.747500", "113321.027500", "113322.307500", "113323.587500", "113324.867500", "113326.147500", "113327.427500", "113328.707500", "113329.987500", "113331.267500", "113332.547500", "113333.827500", "113335.107500", "113336.387500", "113337.667500", "113338.947500", "113340.227500", "113341.507500", "113342.787500", "113344.067500", "113345.347500", "113346.627500", "113347.907500", "113349.187500", "113350.467500", "113351.747500", "113353.027500", "113354.307500", "113355.587500", "113356.867500", "113358.147500", "113359.427500", "113400.707500", "113401.987500", "113403.267500", "113404.547500", "113405.827500", "113407.107500", "113408.387500", "113409.667500", "113410.947500", "113412.227500", "113413.507500", "113414.787500", "113416.067500", "113417.347500", "113418.627500", "113419.907500", "113421.187500", "113422.467500", "113423.747500", "113425.027500", "113426.307500", "113427.587500", "113428.867500", "113430.147500", "113431.427500", "113432.707500", "113433.987500", "113435.267500", "113436.547500", "113437.827500", "113439.107500", "113440.387500", "113441.667500", "113442.947500", "113444.227500", "113445.507500", "113446.787500", "113448.067500", "113449.347500", "113450.627500", "113451.907500", "113453.187500", "113454.467500", "113455.747500", "113457.027500", "113458.307500", "113459.587500", "113500.867500", "113502.147500", "113503.427500", "113504.707500", "113505.987500", "113507.267500", "113508.547500", "113509.827500", "113511.107500", "113512.387500", "113513.667500", "113514.947500", "113516.227500", "113517.507500", "113518.787500", "113520.067500", "113521.347500", "113522.627500", "113523.907500", "113525.187500", "113526.467500", "113527.747500", "113529.027500", "113530.307500", "113531.587500", "113532.867500", "113534.147500", "113535.427500", "113536.707500", "113537.987500", "113539.267500", "113540.547500", "113541.827500", "113543.107500", "113544.387500", "113545.667500", "113546.947500", "113548.227500", "113549.507500", "113550.787500", "113552.067500", "113553.347500", "113554.627500", "113555.907500", "113557.187500", "113558.467500", "113559.747500", "113601.027500", "113602.307500", "113603.587500", "113604.867500", "113606.147500", "113607.427500", "113608.707500", "113609.987500", "113611.267500", "113612.547500", "113613.827500", "113615.107500", "113616.387500", "113617.667500", "113618.947500", "113620.227500", "113621.507500", "113622.787500", "113624.067500", "113625.347500", "113626.627500", "113627.907500", "113629.187500", "113630.467500", "113631.747500", "113633.027500", "113634.307500", "113635.587500", "113636.867500", "113638.147500", "113639.427500", "113640.707500", "113641.987500", "113643.267500", "113644.547500", "113645.827500", "113647.107500", "113648.387500", "113649.667500", "113650.947500", "113652.227500", "113653.507500", "113654.787500", "113656.067500", "113657.347500", "113658.627500", "113659.907500", "113701.187500", "113702.467500", "113703.747500", "113705.027500", "113706.307500", "113707.587500", "113708.867500", "113710.147500", "113711.427500", "113712.707500", "113713.987500", "113715.267500", "113716.547500", "113717.827500", "113719.107500", "113720.387500", "113721.667500", "113722.947500", "113724.227500", "113725.507500", "113726.787500", "113728.067500", "113729.347500", "113730.627500", "113731.907500", "113733.187500", "113734.467500", "113735.747500", "113737.027500", "113738.307500", "113739.587500", "113740.867500", "113742.147500", "113743.427500", "113744.707500", "113745.987500", "113747.267500", "113748.547500", "113749.827500", "113751.107500", "113752.387500", "113753.667500", "113754.947500", "113756.227500", "113757.507500", "113758.787500", "113800.067500", "113801.347500", "113802.627500", "113803.907500", "113805.187500", "113806.467500", "113807.747500", "113809.027500", "113810.307500", "113811.587500", "113812.867500", "113814.147500", "113815.427500", "113816.707500", "113817.987500", "113819.267500", "113820.547500", "113821.827500", "113823.107500", "113824.387500", "113825.667500", "113826.947500", "113828.227500", "113829.507500", "113830.787500", "113832.067500", "113833.347500", "113834.627500", "113835.907500", "113837.187500", "113838.467500", "113839.747500", "113841.027500", "113842.307500", "113843.587500"],
      "ContentTime": ["113127.012000", "113127.016000", "113127.018000", "113127.029000", "113127.032000", "113127.035000", "113127.045000", "113127.048000", "113127.051000", "113127.054000", "113127.057000", "113127.059000", "113127.062000", "113127.065000", "113127.068000", "113127.071000", "113127.074000", "113127.077000", "113127.080000", "113127.091000", "113127.094000", "113127.097000", "113127.100000", "113127.103000", "113127.107000", "113127.110000", "113127.114000", "113127.117000", "113127.120000", "113127.123000", "113207.008000", "113207.011000", "113207.014000", "113207.017000", "113207.020000", "113207.023000", "113207.026000", "113207.029000", "113207.032000", "113207.035000", "113207.038000", "113207.042000", "113207.045000", "113207.048000", "113207.051000", "113207.054000", "113207.057000", "113207.060000", "113207.063000", "113207.065000", "113207.068000", "113207.071000", "113207.074000", "113207.077000", "113207.080000", "113207.083000", "113207.086000", "113207.089000", "113207.092000", "113207.095000", "113207.098000", "113207.101000", "113247.008000", "113247.011000", "113247.014000", "113247.017000", "113247.020000", "113247.023000", "113247.026000", "113247.029000", "113247.032000", "113247.035000", "113247.038000", "113247.048000", "113247.051000", "113247.054000", "113247.057000", "113247.068000", "113247.071000", "113247.074000", "113247.077000", "113247.080000", "113247.083000", "113247.100000", "113247.103000", "113247.106000", "113247.109000", "113247.112000", "113247.115000", "113247.118000", "113247.121000", "113247.124000", "113247.127000", "113327.008000", "113327.011000", "113327.021000", "113327.024000", "113327.027000", "113327.030000", "113327.033000", "113327.036000", "113327.039000", "113327.042000", "113327.045000", "113327.048000", "113327.054000", "113327.057000", "113327.060000", "113327.063000", "113327.066000", "113327.069000", "113327.071000", "113327.074000", "113327.077000", "113327.080000", "113327.083000", "113327.086000", "113327.089000", "113327.092000", "113327.095000", "113327.098000", "113327.101000", "113327.104000", "113327.106000", "113407.008000", "113407.011000", "113407.014000", "113407.017000", "113407.020000", "113407.023000", "113407.026000", "113407.029000", "113407.032000", "113407.035000", "113407.038000", "113407.041000", "113407.044000", "113407.046000", "113407.049000", "113407.052000", "113407.055000", "113407.058000", "113407.061000", "113407.064000", "113407.067000", "113407.070000", "113407.073000", "113407.076000", "113407.079000", "113407.082000", "113407.085000", "113407.088000", "113407.091000", "113407.094000", "113407.097000", "113447.008000", "113447.011000", "113447.014000", "113447.017000", "113447.020000", "113447.023000", "113447.026000", "113447.029000", "113447.032000", "113447.035000", "113447.038000", "113447.041000", "113447.044000", "113447.047000", "113447.050000", "113447.053000", "113447.056000", "113447.059000", "113447.062000", "113447.065000", "113447.068000", "113447.071000", "113447.074000", "113447.088000", "113447.091000", "113447.094000", "113447.096000", "113447.099000", "113447.102000", "113447.105000", "113447.108000", "113447.111000", "113527.008000", "113527.011000", "113527.014000", "113527.017000", "113527.021000", "113527.024000", "113527.027000", "113527.030000", "113527.033000", "113527.035000", "113527.038000", "113527.041000", "113527.044000", "113527.047000", "113527.050000", "113527.053000", "113527.056000", "113527.059000", "113527.062000", "113527.065000", "113527.068000", "113527.071000", "113527.074000", "113527.077000", "113527.080000", "113527.083000", "113527.086000", "113527.089000", "113527.092000", "113527.095000", "113527.098000", "113607.007000", "113607.010000", "113607.013000", "113607.016000", "113607.019000", "113607.022000", "113607.025000", "113607.028000", "113607.031000", "113607.034000", "113607.037000", "113607.040000", "113607.043000", "113607.046000", "113607.049000", "113607.052000", "113607.055000", "113607.058000", "113607.061000", "113607.064000", "113607.067000", "113607.070000", "113607.073000", "113607.076000", "113607.079000", "113607.082000", "113607.085000", "113607.088000", "113607.091000", "113607.094000", "113607.097000", "113647.008000", "113647.011000", "113647.014000", "113647.017000", "113647.020000", "113647.023000", "113647.026000", "113647.029000", "113647.032000", "113647.035000", "113647.038000", "113647.041000", "113647.044000", "113647.047000", "113647.050000", "113647.053000", "113647.055000", "113647.058000", "113647.061000", "113647.064000", "113647.067000", "113647.070000", "113647.073000", "113647.077000", "113647.083000", "113647.088000", "113647.091000", "113647.094000", "113647.097000", "113647.100000", "113647.103000", "113727.008000", "113727.011000", "113727.014000", "113727.017000", "113727.020000", "113727.023000", "113727.026000", "113727.029000", "113727.032000", "113727.035000", "113727.038000", "113727.041000", "113727.044000", "113727.047000", "113727.050000", "113727.053000", "113727.056000", "113727.059000", "113727.062000", "113727.065000", "113727.068000", "113727.071000", "113727.074000", "113727.077000", "113727.079000", "113727.082000", "113727.085000", "113727.088000", "113727.091000", "113727.094000", "113727.097000", "113727.100000", "113807.008000", "113807.011000", "113807.015000", "113807.018000", "113807.021000", "113807.024000", "113807.027000", "113807.030000", "113807.033000", "113807.036000", "113807.039000", "113807.042000", "113807.045000", "113807.048000", "113807.051000", "113807.054000", "113807.057000", "113807.060000", "113807.063000", "113807.066000", "113807.069000", "113807.072000", "113807.075000", "113807.078000", "113807.081000", "113807.084000", "113807.087000", "113807.090000", "113807.093000", "113807.096000", "113807.099000", "113844.863000", "113844.866000", "113844.870000", "113844.873000", "113844.876000", "113844.879000", "113844.882000", "113844.885000", "113844.888000", "113844.891000", "113844.894000", "113844.897000", "113844.900000", "113844.903000", "113844.918000", "113844.921000", "113844.924000", "113844.927000", "113844.930000", "113844.933000", "113844.936000", "113844.939000", "113844.942000", "113844.945000", "113844.949000", "113844.951000", "113844.955000", "113844.958000", "113844.961000", "113844.964000"],
      "InstanceCreationTime": ["113127.012000", "113127.016000", "113127.018000", "113127.029000", "113127.032000", "113127.035000", "113127.045000", "113127.048000", "113127.051000", "113127.054000", "113127.057000", "113127.059000", "113127.062000", "113127.065000", "113127.068000", "113127.071000", "113127.074000", "113127.077000", "113127.080000", "113127.091000", "113127.094000", "113127.097000", "113127.100000", "113127.103000", "113127.107000", "113127.110000", "113127.114000", "113127.117000", "113127.120000", "113127.123000", "113207.008000", "113207.011000", "113207.014000", "113207.017000", "113207.020000", "113207.023000", "113207.026000", "113207.029000", "113207.032000", "113207.035000", "113207.038000", "113207.042000", "113207.045000", "113207.048000", "113207.051000", "113207.054000", "113207.057000", "113207.060000", "113207.063000", "113207.065000", "113207.068000", "113207.071000", "113207.074000", "113207.077000", "113207.080000", "113207.083000", "113207.086000", "113207.089000", "113207.092000", "113207.095000", "113207.098000", "113207.101000", "113247.008000", "113247.011000", "113247.014000", "113247.017000", "113247.020000", "113247.023000", "113247.026000", "113247.029000", "113247.032000", "113247.035000", "113247.038000", "113247.048000", "113247.051000", "113247.054000", "113247.057000", "113247.068000", "113247.071000", "113247.074000", "113247.077000", "113247.080000", "113247.083000", "113247.100000", "113247.103000", "113247.106000", "113247.109000", "113247.112000", "113247.115000", "113247.118000", "113247.121000", "113247.124000", "113247.127000", "113327.008000", "113327.011000", "113327.021000", "113327.024000", "113327.027000", "113327.030000", "113327.033000", "113327.036000", "113327.039000", "113327.042000", "113327.045000", "113327.048000", "113327.054000", "113327.057000", "113327.060000", "113327.063000", "113327.066000", "113327.069000", "113327.071000", "113327.074000", "113327.077000", "113327.080000", "113327.083000", "113327.086000", "113327.089000", "113327.092000", "113327.095000", "113327.098000", "113327.101000", "113327.104000", "113327.106000", "113407.008000", "113407.011000", "113407.014000", "113407.017000", "113407.020000", "113407.023000", "113407.026000", "113407.029000", "113407.032000", "113407.035000", "113407.038000", "113407.041000", "113407.044000", "113407.046000", "113407.049000", "113407.052000", "113407.055000", "113407.058000", "113407.061000", "113407.064000", "113407.067000", "113407.070000", "113407.073000", "113407.076000", "113407.079000", "113407.082000", "113407.085000", "113407.088000", "113407.091000", "113407.094000", "113407.097000", "113447.008000", "113447.011000", "113447.014000", "113447.017000", "113447.020000", "113447.023000", "113447.026000", "113447.029000", "113447.032000", "113447.035000", "113447.038000", "113447.041000", "113447.044000", "113447.047000", "113447.050000", "113447.053000", "113447.056000", "113447.059000", "113447.062000", "113447.065000", "113447.068000", "113447.071000", "113447.074000", "113447.088000", "113447.091000", "113447.094000", "113447.096000", "113447.099000", "113447.102000", "113447.105000", "113447.108000", "113447.111000", "113527.008000", "113527.011000", "113527.014000", "113527.017000", "113527.021000", "113527.024000", "113527.027000", "113527.030000", "113527.033000", "113527.035000", "113527.038000", "113527.041000", "113527.044000", "113527.047000", "113527.050000", "113527.053000", "113527.056000", "113527.059000", "113527.062000", "113527.065000", "113527.068000", "113527.071000", "113527.074000", "113527.077000", "113527.080000", "113527.083000", "113527.086000", "113527.089000", "113527.092000", "113527.095000", "113527.098000", "113607.007000", "113607.010000", "113607.013000", "113607.016000", "113607.019000", "113607.022000", "113607.025000", "113607.028000", "113607.031000", "113607.034000", "113607.037000", "113607.040000", "113607.043000", "113607.046000", "113607.049000", "113607.052000", "113607.055000", "113607.058000", "113607.061000", "113607.064000", "113607.067000", "113607.070000", "113607.073000", "113607.076000", "113607.079000", "113607.082000", "113607.085000", "113607.088000", "113607.091000", "113607.094000", "113607.097000", "113647.008000", "113647.011000", "113647.014000", "113647.017000", "113647.020000", "113647.023000", "113647.026000", "113647.029000", "113647.032000", "113647.035000", "113647.038000", "113647.041000", "113647.044000", "113647.047000", "113647.050000", "113647.053000", "113647.055000", "113647.058000", "113647.061000", "113647.064000", "113647.067000", "113647.070000", "113647.073000", "113647.077000", "113647.083000", "113647.088000", "113647.091000", "113647.094000", "113647.097000", "113647.100000", "113647.103000", "113727.008000", "113727.011000", "113727.014000", "113727.017000", "113727.020000", "113727.023000", "113727.026000", "113727.029000", "113727.032000", "113727.035000", "113727.038000", "113727.041000", "113727.044000", "113727.047000", "113727.050000", "113727.053000", "113727.056000", "113727.059000", "113727.062000", "113727.065000", "113727.068000", "113727.071000", "113727.074000", "113727.077000", "113727.079000", "113727.082000", "113727.085000", "113727.088000", "113727.091000", "113727.094000", "113727.097000", "113727.100000", "113807.008000", "113807.011000", "113807.015000", "113807.018000", "113807.021000", "113807.024000", "113807.027000", "113807.030000", "113807.033000", "113807.036000", "113807.039000", "113807.042000", "113807.045000", "113807.048000", "113807.051000", "113807.054000", "113807.057000", "113807.060000", "113807.063000", "113807.066000", "113807.069000", "113807.072000", "113807.075000", "113807.078000", "113807.081000", "113807.084000", "113807.087000", "113807.090000", "113807.093000", "113807.096000", "113807.099000", "113844.863000", "113844.866000", "113844.870000", "113844.873000", "113844.876000", "113844.879000", "113844.882000", "113844.885000", "113844.888000", "113844.891000", "113844.894000", "113844.897000", "113844.900000", "113844.903000", "113844.918000", "113844.921000", "113844.924000", "113844.927000", "113844.930000", "113844.933000", "113844.936000", "113844.939000", "113844.942000", "113844.945000", "113844.949000", "113844.951000", "113844.955000", "113844.958000", "113844.961000", "113844.964000"],
      "InstanceNumber": [1, 2, 3, 4, 5, 6, 7, 8, 9, 10, 11, 12, 13, 14, 15, 16, 17, 18, 19, 20, 21, 22, 23, 24, 25, 26, 27, 28, 29, 30, 31, 32, 33, 34, 35, 36, 37, 38, 39, 40, 41, 42, 43, 44, 45, 46, 47, 48, 49, 50, 51, 52, 53, 54, 55, 56, 57, 58, 59, 60, 61, 62, 63, 64, 65, 66, 67, 68, 69, 70, 71, 72, 73, 74, 75, 76, 77, 78, 79, 80, 81, 82, 83, 84, 85, 86, 87, 88, 89, 90, 91, 92, 93, 94, 95, 96, 97, 98, 99, 100, 101, 102, 103, 104, 105, 106, 107, 108, 109, 110, 111, 112, 113, 114, 115, 116, 117, 118, 119, 120, 121, 122, 123, 124, 125, 126, 127, 128, 129, 130, 131, 132, 133, 134, 135, 136, 137, 138, 139, 140, 141, 142, 143, 144, 145, 146, 147, 148, 149, 150, 151, 152, 153, 154, 155, 156, 157, 158, 159, 160, 161, 162, 163, 164, 165, 166, 167, 168, 169, 170, 171, 172, 173, 174, 175, 176, 177, 178, 179, 180, 181, 182, 183, 184, 185, 186, 187, 188, 189, 190, 191, 192, 193, 194, 195, 196, 197, 198, 199, 200, 201, 202, 203, 204, 205, 206, 207, 208, 209, 210, 211, 212, 213, 214, 215, 216, 217, 218, 219, 220, 221, 222, 223, 224, 225, 226, 227, 228, 229, 230, 231, 232, 233, 234, 235, 236, 237, 238, 239, 240, 241, 242, 243, 244, 245, 246, 247, 248, 249, 250, 251, 252, 253, 254, 255, 256, 257, 258, 259, 260, 261, 262, 263, 264, 265, 266, 267, 268, 269, 270, 271, 272, 273, 274, 275, 276, 277, 278, 279, 280, 281, 282, 283, 284, 285, 286, 287, 288, 289, 290, 291, 292, 293, 294, 295, 296, 297, 298, 299, 300, 301, 302, 303, 304, 305, 306, 307, 308, 309, 310, 311, 312, 313, 314, 315, 316, 317, 318, 319, 320, 321, 322, 323, 324, 325, 326, 327, 328, 329, 330, 331, 332, 333, 334, 335, 336, 337, 338, 339, 340, 341, 342, 343, 344, 345, 346, 347, 348, 349, 350, 351, 352, 353, 354, 355, 356, 357, 358, 359, 360, 361, 362, 363, 364, 365, 366, 367, 368, 369, 370, 371, 372, 373],
