{
  "AcquisitionMatrixPE": 108,
  "AcquisitionNumber": 1,
  "AcquisitionTime": "12:06:37.772500",
  "BandwidthPerPixelPhaseEncode": 15.964,
  "BaseResolution": 108,
  "BodyPartExamined": "BRAIN",
  "ConsistencyInfo": "N4_VE11C_LATEST_20160120",
  "ConversionSoftware": "dcm2niix",
  "ConversionSoftwareVersion": "v1.0.20180622 GCC6.3.0",
  "DerivedVendorReportedEchoSpacing": 0.000580009,
  "DeviceSerialNumber": "66054",
  "DwellTime": 2.1e-06,
  "EchoTime": 0.031,
  "EchoTrainLength": 95,
  "EffectiveEchoSpacing": 0.000580009,
  "FlipAngle": 64,
  "ImageOrientationPatientDICOM": [0.99884, 0.0369958, 0.0308262, -0.0209227, 0.90997, -0.414147],
  "ImageType": [
    "ORIGINAL",
    "PRIMARY",
    "M",
    "ND",
    "MOSAIC"
],
  "InPlanePhaseEncodingDirectionDICOM": "COL",
  "InstitutionAddress": "Chemin_des_Mines_9_Geneve_District_CH_1211",
  "InstitutionName": "Fondation_Campus_Biotech_Geneva",
  "InstitutionalDepartmentName": "Department",
  "MRAcquisitionType": "2D",
  "MagneticFieldStrength": 3,
  "Manufacturer": "Siemens",
  "ManufacturersModelName": "Prisma",
  "Modality": "MR",
  "MultibandAccelerationFactor": 4,
  "PartialFourier": 0.875,
  "PatientPosition": "HFS",
  "PercentPhaseFOV": 100,
  "PhaseEncodingDirection": "j-",
  "PhaseEncodingSteps": 95,
  "PhaseResolution": 1,
  "PixelBandwidth": 2205,
  "ProcedureStepDescription": "J.DRM_Michael",
  "ProtocolName": "Rest_bold_s4_TR1.28",
  "PulseSequenceDetails": "%SiemensSeq%_ep2d_bold",
  "ReceiveCoilActiveElements": "HC1-7;NC1,2",
  "ReceiveCoilName": "HeadNeck_64",
  "ReconMatrixPE": 108,
  "RepetitionTime": 1.28,
  "SAR": 0.0738283,
  "ScanOptions": "PFP_FS",
  "ScanningSequence": "EP",
  "SequenceName": "_epfid2d1_108",
  "SequenceVariant": "SK",
  "SeriesDescription": "Rest_bold_s4_TR1.28",
  "SeriesNumber": 10,
  "ShimSetting": [-1244, -11664, 6445, 611, 127, 47, 123, 70],
  "SliceThickness": 2,
  "SliceTiming": [0.945, 0, 0.63, 0.0775, 0.7075, 0.1575, 0.7875, 0.235, 0.865, 0.3925, 1.0225, 0.4725, 1.1025, 0.55, 1.18, 0.315, 0.945, 0, 0.63, 0.0775, 0.7075, 0.1575, 0.7875, 0.235, 0.865, 0.3925, 1.0225, 0.4725, 1.1025, 0.55, 1.18, 0.315, 0.945, 0, 0.63, 0.0775, 0.7075, 0.1575, 0.7875, 0.235, 0.865, 0.3925, 1.0225, 0.4725, 1.1025, 0.55, 1.18, 0.315, 0.945, 0, 0.63, 0.0775, 0.7075, 0.1575, 0.7875, 0.235, 0.865, 0.3925, 1.0225, 0.4725, 1.1025, 0.55, 1.18, 0.315],
  "SoftwareVersions": "syngo_MR_E11",
  "SpacingBetweenSlices": 2,
  "StationName": "AWP66054",
  "TaskName": "rest",
  "TotalReadoutTime": 0.0620609,
  "TxRefAmp": 274.915,
  "dcmmeta_affine": [
    [-1.9884312152862549, -0.041651759296655655, 0.08674513548612595, 105.445068359375],
    [-0.07364898920059204, 1.8115137815475464, -0.826042115688324, -65.7801742553711],
    [0.06136695295572281, 0.8244583606719971, 1.8193761110305786, -93.45880126953125],
    [0.0, 0.0, 0.0, 1.0]
],
  "dcmmeta_reorient_transform": [
    [0.0, -1.0, 0.0, 107.0],
    [1.0, 0.0, 0.0, 0.0],
    [0.0, 0.0, 1.0, 0.0],
    [0.0, 0.0, 0.0, 1.0]
],
  "dcmmeta_shape": [108, 108, 64, 250],
  "dcmmeta_slice_dim": 2,
  "dcmmeta_version": 0.6,
  "global": {
    "const": {
      "AccessionNumber": "",
      "AcquisitionMatrix": [108, 0, 0, 108],
      "AngioFlag": "N",
      "BitsAllocated": 16,
      "BitsStored": 12,
      "BodyPartExamined": "BRAIN",
      "Columns": 864,
      "EchoNumbers": 1,
      "EchoTime": 31.0,
      "EchoTrainLength": 95,
      "FlipAngle": 64.0,
      "HighBit": 11,
      "ImageOrientationPatient": [0.99883985658735, 0.0369957691015, 0.03082618953337, -0.0209227441838, 0.90996972521468, -0.4141465175135],
      "ImagePositionPatient": [-836.87097381073, -840.64335507965, 283.20679177542],
      "ImageType": [
        "ORIGINAL",
        "PRIMARY",
        "M",
        "ND",
        "MOSAIC"
],
      "ImagedNucleus": "1H",
      "ImagingFrequency": 123.257403,
      "InPlanePhaseEncodingDirection": "COL",
      "MRAcquisitionType": "2D",
      "MagneticFieldStrength": 3.0,
      "Manufacturer": "SIEMENS",
      "ManufacturerModelName": "Prisma",
      "Modality": "MR",
      "NumberOfAverages": 1.0,
      "NumberOfPhaseEncodingSteps": 95,
      "PercentPhaseFieldOfView": 100.0,
      "PercentSampling": 100.0,
      "PerformedProcedureStepStartTime": "110853.972000",
      "PhotometricInterpretation": "MONOCHROME2",
      "PixelBandwidth": 2205.0,
      "PixelRepresentation": 0,
      "PixelSpacing": [1.990740776062, 1.990740776062],
      "PositionReferenceIndicator": "",
      "ProtocolName": "Rest_bold_s4_TR1.28",
      "RepetitionTime": 1280.0,
      "Rows": 864,
      "SAR": 0.07382831379921,
      "SamplesPerPixel": 1,
      "ScanOptions": [
        "PFP",
        "FS"
],
      "ScanningSequence": "EP",
      "SequenceName": "*epfid2d1_108",
      "SequenceVariant": "SK",
      "SeriesDescription": "Rest_bold_s4_TR1.28",
      "SeriesNumber": 10,
      "SeriesTime": "120707.247000",
      "SliceLocation": -53.276339334504,
      "SliceThickness": 2.0,
      "SmallestImagePixelValue": 0,
      "SoftwareVersions": "syngo MR E11",
      "SpacingBetweenSlices": 1.9999999297645,
      "SpecificCharacterSet": "ISO_IR 100",
      "StudyID": "1",
      "StudyTime": "110853.903000",
      "TransmitCoilName": "Body",
      "VariableFlipAngleFlag": "N",
      "WindowCenterWidthExplanation": "Algo1",
      "dBdt": 0.0},
    "slices": {}
  },
  "time": {
    "samples": {
      "AcquisitionNumber": [1, 2, 3, 4, 5, 6, 7, 8, 9, 10, 11, 12, 13, 14, 15, 16, 17, 18, 19, 20, 21, 22, 23, 24, 25, 26, 27, 28, 29, 30, 31, 32, 33, 34, 35, 36, 37, 38, 39, 40, 41, 42, 43, 44, 45, 46, 47, 48, 49, 50, 51, 52, 53, 54, 55, 56, 57, 58, 59, 60, 61, 62, 63, 64, 65, 66, 67, 68, 69, 70, 71, 72, 73, 74, 75, 76, 77, 78, 79, 80, 81, 82, 83, 84, 85, 86, 87, 88, 89, 90, 91, 92, 93, 94, 95, 96, 97, 98, 99, 100, 101, 102, 103, 104, 105, 106, 107, 108, 109, 110, 111, 112, 113, 114, 115, 116, 117, 118, 119, 120, 121, 122, 123, 124, 125, 126, 127, 128, 129, 130, 131, 132, 133, 134, 135, 136, 137, 138, 139, 140, 141, 142, 143, 144, 145, 146, 147, 148, 149, 150, 151, 152, 153, 154, 155, 156, 157, 158, 159, 160, 161, 162, 163, 164, 165, 166, 167, 168, 169, 170, 171, 172, 173, 174, 175, 176, 177, 178, 179, 180, 181, 182, 183, 184, 185, 186, 187, 188, 189, 190, 191, 192, 193, 194, 195, 196, 197, 198, 199, 200, 201, 202, 203, 204, 205, 206, 207, 208, 209, 210, 211, 212, 213, 214, 215, 216, 217, 218, 219, 220, 221, 222, 223, 224, 225, 226, 227, 228, 229, 230, 231, 232, 233, 234, 235, 236, 237, 238, 239, 240, 241, 242, 243, 244, 245, 246, 247, 248, 249, 250],
      "AcquisitionTime": ["120637.772500", "120639.052500", "120640.332500", "120641.612500", "120642.892500", "120644.172500", "120645.452500", "120646.732500", "120648.012500", "120649.292500", "120650.572500", "120651.852500", "120653.132500", "120654.412500", "120655.692500", "120656.972500", "120658.252500", "120659.532500", "120700.812500", "120702.092500", "120703.372500", "120704.652500", "120705.932500", "120707.212500", "120708.492500", "120709.772500", "120711.052500", "120712.332500", "120713.612500", "120714.892500", "120716.172500", "120717.452500", "120718.732500", "120720.012500", "120721.292500", "120722.572500", "120723.852500", "120725.132500", "120726.412500", "120727.692500", "120728.972500", "120730.252500", "120731.532500", "120732.812500", "120734.092500", "120735.372500", "120736.652500", "120737.932500", "120739.212500", "120740.492500", "120741.772500", "120743.052500", "120744.332500", "120745.612500", "120746.892500", "120748.172500", "120749.452500", "120750.732500", "120752.012500", "120753.292500", "120754.572500", "120755.852500", "120757.132500", "120758.412500", "120759.692500", "120800.972500", "120802.252500", "120803.532500", "120804.812500", "120806.092500", "120807.372500", "120808.652500", "120809.932500", "120811.212500", "120812.492500", "120813.772500", "120815.052500", "120816.332500", "120817.612500", "120818.892500", "120820.172500", "120821.452500", "120822.732500", "120824.012500", "120825.292500", "120826.572500", "120827.852500", "120829.132500", "120830.412500", "120831.692500", "120832.972500", "120834.252500", "120835.532500", "120836.812500", "120838.092500", "120839.372500", "120840.652500", "120841.932500", "120843.212500", "120844.492500", "120845.772500", "120847.052500", "120848.332500", "120849.612500", "120850.892500", "120852.172500", "120853.452500", "120854.732500", "120856.012500", "120857.292500", "120858.572500", "120859.852500", "120901.132500", "120902.412500", "120903.692500", "120904.972500", "120906.252500", "120907.532500", "120908.812500", "120910.092500", "120911.372500", "120912.652500", "120913.932500", "120915.212500", "120916.492500", "120917.772500", "120919.052500", "120920.332500", "120921.612500", "120922.892500", "120924.172500", "120925.452500", "120926.732500", "120928.012500", "120929.292500", "120930.572500", "120931.852500", "120933.132500", "120934.412500", "120935.692500", "120936.972500", "120938.252500", "120939.532500", "120940.812500", "120942.092500", "120943.372500", "120944.652500", "120945.932500", "120947.212500", "120948.492500", "120949.772500", "120951.052500", "120952.332500", "120953.612500", "120954.892500", "120956.172500", "120957.452500", "120958.732500", "121000.012500", "121001.292500", "121002.572500", "121003.852500", "121005.132500", "121006.412500", "121007.692500", "121008.972500", "121010.252500", "121011.532500", "121012.812500", "121014.092500", "121015.372500", "121016.652500", "121017.932500", "121019.212500", "121020.492500", "121021.772500", "121023.052500", "121024.332500", "121025.612500", "121026.892500", "121028.172500", "121029.452500", "121030.732500", "121032.012500", "121033.292500", "121034.572500", "121035.852500", "121037.132500", "121038.412500", "121039.692500", "121040.972500", "121042.252500", "121043.532500", "121044.812500", "121046.092500", "121047.372500", "121048.652500", "121049.932500", "121051.212500", "121052.492500", "121053.772500", "121055.052500", "121056.332500", "121057.612500", "121058.892500", "121100.172500", "121101.452500", "121102.732500", "121104.012500", "121105.292500", "121106.572500", "121107.852500", "121109.132500", "121110.412500", "121111.692500", "121112.972500", "121114.252500", "121115.532500", "121116.812500", "121118.092500", "121119.372500", "121120.652500", "121121.932500", "121123.212500", "121124.492500", "121125.772500", "121127.052500", "121128.332500", "121129.612500", "121130.892500", "121132.172500", "121133.452500", "121134.732500", "121136.012500", "121137.292500", "121138.572500", "121139.852500", "121141.132500", "121142.412500", "121143.692500", "121144.972500", "121146.252500", "121147.532500", "121148.812500", "121150.092500", "121151.372500", "121152.652500", "121153.932500", "121155.212500", "121156.492500"],
      "ContentTime": ["120707.265000", "120707.275000", "120707.278000", "120707.281000", "120707.288000", "120707.291000", "120707.294000", "120707.297000", "120707.306000", "120707.309000", "120707.312000", "120707.315000", "120707.318000", "120707.321000", "120707.329000", "120707.342000", "120707.345000", "120707.348000", "120707.351000", "120707.354000", "120707.357000", "120707.360000", "120707.363000", "120747.246000", "120747.249000", "120747.252000", "120747.256000", "120747.259000", "120747.270000", "120747.273000", "120747.281000", "120747.284000", "120747.287000", "120747.290000", "120747.294000", "120747.297000", "120747.300000", "120747.303000", "120747.321000", "120747.324000", "120747.327000", "120747.330000", "120747.333000", "120747.336000", "120747.339000", "120747.342000", "120747.345000", "120747.348000", "120747.351000", "120747.354000", "120747.357000", "120747.360000", "120747.363000", "120747.366000", "120827.246000", "120827.249000", "120827.252000", "120827.255000", "120827.258000", "120827.261000", "120827.264000", "120827.267000", "120827.270000", "120827.273000", "120827.276000", "120827.279000", "120827.282000", "120827.284000", "120827.287000", "120827.290000", "120827.293000", "120827.296000", "120827.299000", "120827.302000", "120827.305000", "120827.308000", "120827.311000", "120827.314000", "120827.317000", "120827.320000", "120827.324000", "120827.327000", "120827.330000", "120827.333000", "120827.336000", "120907.247000", "120907.250000", "120907.253000", "120907.256000", "120907.259000", "120907.289000", "120907.292000", "120907.295000", "120907.298000", "120907.301000", "120907.304000", "120907.307000", "120907.310000", "120907.313000", "120907.316000", "120907.319000", "120907.322000", "120907.325000", "120907.328000", "120907.331000", "120907.334000", "120907.341000", "120907.344000", "120907.347000", "120907.350000", "120907.353000", "120907.356000", "120907.365000", "120907.368000", "120907.371000", "120907.374000", "120947.246000", "120947.249000", "120947.259000", "120947.262000", "120947.265000", "120947.268000", "120947.272000", "120947.275000", "120947.277000", "120947.280000", "120947.283000", "120947.287000", "120947.290000", "120947.292000", "120947.296000", "120947.299000", "120947.301000", "120947.304000", "120947.307000", "120947.313000", "120947.316000", "120947.318000", "120947.322000", "120947.324000", "120947.327000", "120947.330000", "120947.333000", "120947.336000", "120947.339000", "120947.342000", "120947.345000", "120947.348000", "121027.246000", "121027.249000", "121027.252000", "121027.255000", "121027.258000", "121027.268000", "121027.271000", "121027.274000", "121027.277000", "121027.280000", "121027.283000", "121027.286000", "121027.289000", "121027.292000", "121027.295000", "121027.298000", "121027.301000", "121027.304000", "121027.307000", "121027.310000", "121027.313000", "121027.316000", "121027.319000", "121027.322000", "121027.325000", "121027.328000", "121027.331000", "121027.334000", "121027.337000", "121027.340000", "121027.343000", "121107.247000", "121107.250000", "121107.253000", "121107.256000", "121107.259000", "121107.262000", "121107.265000", "121107.268000", "121107.271000", "121107.274000", "121107.277000", "121107.280000", "121107.283000", "121107.286000", "121107.289000", "121107.292000", "121107.295000", "121107.298000", "121107.301000", "121107.304000", "121107.307000", "121107.310000", "121107.313000", "121107.322000", "121107.325000", "121107.328000", "121107.331000", "121107.334000", "121107.337000", "121107.340000", "121107.343000", "121127.247000", "121127.250000", "121127.253000", "121127.256000", "121127.259000", "121127.262000", "121127.265000", "121127.268000", "121127.271000", "121127.274000", "121127.277000", "121127.280000", "121127.283000", "121127.286000", "121127.289000", "121127.307000", "121157.721000", "121157.724000", "121157.727000", "121157.730000", "121157.753000", "121157.757000", "121157.760000", "121157.764000", "121157.769000", "121157.774000", "121157.792000", "121157.797000", "121157.802000", "121157.807000", "121157.812000", "121157.815000", "121157.818000", "121157.822000", "121157.825000", "121157.827000", "121157.831000", "121157.834000", "121157.836000", "121157.839000"],
      "InstanceCreationTime": ["120707.265000", "120707.275000", "120707.278000", "120707.281000", "120707.288000", "120707.291000", "120707.294000", "120707.297000", "120707.306000", "120707.309000", "120707.312000", "120707.315000", "120707.318000", "120707.321000", "120707.329000", "120707.342000", "120707.345000", "120707.348000", "120707.351000", "120707.354000", "120707.357000", "120707.360000", "120707.363000", "120747.246000", "120747.249000", "120747.252000", "120747.256000", "120747.259000", "120747.270000", "120747.273000", "120747.281000", "120747.284000", "120747.287000", "120747.290000", "120747.294000", "120747.297000", "120747.300000", "120747.303000", "120747.321000", "120747.324000", "120747.327000", "120747.330000", "120747.333000", "120747.336000", "120747.339000", "120747.342000", "120747.345000", "120747.348000", "120747.351000", "120747.354000", "120747.357000", "120747.360000", "120747.363000", "120747.366000", "120827.246000", "120827.249000", "120827.252000", "120827.255000", "120827.258000", "120827.261000", "120827.264000", "120827.267000", "120827.270000", "120827.273000", "120827.276000", "120827.279000", "120827.282000", "120827.284000", "120827.287000", "120827.290000", "120827.293000", "120827.296000", "120827.299000", "120827.302000", "120827.305000", "120827.308000", "120827.311000", "120827.314000", "120827.317000", "120827.320000", "120827.324000", "120827.327000", "120827.330000", "120827.333000", "120827.336000", "120907.247000", "120907.250000", "120907.253000", "120907.256000", "120907.259000", "120907.289000", "120907.292000", "120907.295000", "120907.298000", "120907.301000", "120907.304000", "120907.307000", "120907.310000", "120907.313000", "120907.316000", "120907.319000", "120907.322000", "120907.325000", "120907.328000", "120907.331000", "120907.334000", "120907.341000", "120907.344000", "120907.347000", "120907.350000", "120907.353000", "120907.356000", "120907.365000", "120907.368000", "120907.371000", "120907.374000", "120947.246000", "120947.249000", "120947.259000", "120947.262000", "120947.265000", "120947.268000", "120947.272000", "120947.275000", "120947.277000", "120947.280000", "120947.283000", "120947.287000", "120947.290000", "120947.292000", "120947.296000", "120947.299000", "120947.301000", "120947.304000", "120947.307000", "120947.313000", "120947.316000", "120947.318000", "120947.322000", "120947.324000", "120947.327000", "120947.330000", "120947.333000", "120947.336000", "120947.339000", "120947.342000", "120947.345000", "120947.348000", "121027.246000", "121027.249000", "121027.252000", "121027.255000", "121027.258000", "121027.268000", "121027.271000", "121027.274000", "121027.277000", "121027.280000", "121027.283000", "121027.286000", "121027.289000", "121027.292000", "121027.295000", "121027.298000", "121027.301000", "121027.304000", "121027.307000", "121027.310000", "121027.313000", "121027.316000", "121027.319000", "121027.322000", "121027.325000", "121027.328000", "121027.331000", "121027.334000", "121027.337000", "121027.340000", "121027.343000", "121107.247000", "121107.250000", "121107.253000", "121107.256000", "121107.259000", "121107.262000", "121107.265000", "121107.268000", "121107.271000", "121107.274000", "121107.277000", "121107.280000", "121107.283000", "121107.286000", "121107.289000", "121107.292000", "121107.295000", "121107.298000", "121107.301000", "121107.304000", "121107.307000", "121107.310000", "121107.313000", "121107.322000", "121107.325000", "121107.328000", "121107.331000", "121107.334000", "121107.337000", "121107.340000", "121107.343000", "121127.247000", "121127.250000", "121127.253000", "121127.256000", "121127.259000", "121127.262000", "121127.265000", "121127.268000", "121127.271000", "121127.274000", "121127.277000", "121127.280000", "121127.283000", "121127.286000", "121127.289000", "121127.307000", "121157.721000", "121157.724000", "121157.727000", "121157.730000", "121157.753000", "121157.757000", "121157.760000", "121157.764000", "121157.769000", "121157.774000", "121157.792000", "121157.797000", "121157.802000", "121157.807000", "121157.812000", "121157.815000", "121157.818000", "121157.822000", "121157.825000", "121157.827000", "121157.831000", "121157.834000", "121157.836000", "121157.839000"],
      "InstanceNumber": [1, 2, 3, 4, 5, 6, 7, 8, 9, 10, 11, 12, 13, 14, 15, 16, 17, 18, 19, 20, 21, 22, 23, 24, 25, 26, 27, 28, 29, 30, 31, 32, 33, 34, 35, 36, 37, 38, 39, 40, 41, 42, 43, 44, 45, 46, 47, 48, 49, 50, 51, 52, 53, 54, 55, 56, 57, 58, 59, 60, 61, 62, 63, 64, 65, 66, 67, 68, 69, 70, 71, 72, 73, 74, 75, 76, 77, 78, 79, 80, 81, 82, 83, 84, 85, 86, 87, 88, 89, 90, 91, 92, 93, 94, 95, 96, 97, 98, 99, 100, 101, 102, 103, 104, 105, 106, 107, 108, 109, 110, 111, 112, 113, 114, 115, 116, 117, 118, 119, 120, 121, 122, 123, 124, 125, 126, 127, 128, 129, 130, 131, 132, 133, 134, 135, 136, 137, 138, 139, 140, 141, 142, 143, 144, 145, 146, 147, 148, 149, 150, 151, 152, 153, 154, 155, 156, 157, 158, 159, 160, 161, 162, 163, 164, 165, 166, 167, 168, 169, 170, 171, 172, 173, 174, 175, 176, 177, 178, 179, 180, 181, 182, 183, 184, 185, 186, 187, 188, 189, 190, 191, 192, 193, 194, 195, 196, 197, 198, 199, 200, 201, 202, 203, 204, 205, 206, 207, 208, 209, 210, 211, 212, 213, 214, 215, 216, 217, 218, 219, 220, 221, 222, 223, 224, 225, 226, 227, 228, 229, 230, 231, 232, 233, 234, 235, 236, 237, 238, 239, 240, 241, 242, 243, 244, 245, 246, 247, 248, 249, 250],
      "LargestImagePixelValue": [2275, 2088, 2071, 2108, 2072, 2248, 2062, 2322, 2339, 2144, 2000, 1998, 2005, 2030, 2041, 2004, 1993, 1981, 2408, 2026, 1992, 2075, 2377, 2311, 1995, 2003, 1997, 2223, 2448, 2568, 2445, 2424, 2413, 1985, 1982, 2017, 2003, 2322, 2474, 2633, 2864, 2006, 2165, 2520, 1989, 1970, 1955, 2030, 1977, 1991, 1960, 2082, 2112, 1992, 2056, 2200, 1962, 1999, 2009, 1975, 1985, 1977, 2316, 2282, 2042, 2082, 2471, 2595, 2417, 2101, 1989, 1964, 1970, 1975, 1978, 2053, 1990, 2009, 1985, 1997, 2015, 2008, 1988, 1986, 1989, 2069, 2486, 2812, 1999, 2006, 2263, 2282, 2289, 2372, 1989, 2094, 1981, 2272, 2445, 2328, 1975, 1995, 1996, 2011, 2000, 2663, 2357, 2272, 2786, 2425, 2127, 2031, 2010, 2002, 2016, 2005, 2040, 2074, 2017, 2081, 2062, 2204, 2059, 2078, 2064, 2046, 2377, 2207, 2062, 2018, 2036, 1989, 2023, 2021, 2112, 2062, 2314, 2075, 2049, 2045, 2081, 2048, 2022, 2059, 2446, 2916, 2325, 2341, 2278, 2142, 2031, 2053, 2102, 2037, 2073, 2091, 2195, 2166, 2298, 2070, 2070, 2088, 2091, 2307, 2103, 2056, 2090, 2100, 2355, 2426, 2270, 2080, 2403, 2632, 2494, 2239, 2289, 2310, 2109, 2084, 2099, 2101, 2354, 2234, 2064, 2404, 2131, 2096, 2663, 2197, 2062, 2088, 2271, 2190, 2054, 2038, 2065, 2070, 2064, 2148, 2154, 2091, 2087, 2101, 2485, 2223, 2110, 2069, 2082, 2481, 2483, 2300, 2314, 2071, 2095, 2058, 2026, 2049, 2090, 2067, 2054, 2066, 2037, 2330, 2077, 2142, 2042, 2007, 1979, 2196, 2722, 2253, 2121, 2340, 2696, 2440, 1991, 1931, 1955, 1955, 1927, 2135, 2318, 2094, 1979, 1959, 1964, 2008, 2241, 2458],
      "WindowCenter": [643.0, 640.0, 640.0, 640.0, 640.0, 641.0, 639.0, 641.0, 641.0, 639.0, 638.0, 638.0, 638.0, 638.0, 638.0, 637.0, 637.0, 636.0, 641.0, 637.0, 637.0, 637.0, 639.0, 639.0, 636.0, 636.0, 637.0, 639.0, 640.0, 641.0, 640.0, 641.0, 641.0, 638.0, 638.0, 638.0, 638.0, 640.0, 641.0, 641.0, 642.0, 636.0, 637.0, 640.0, 636.0, 635.0, 636.0, 636.0, 635.0, 634.0, 633.0, 634.0, 635.0, 634.0, 635.0, 636.0, 634.0, 635.0, 635.0, 636.0, 636.0, 635.0, 638.0, 636.0, 634.0, 633.0, 636.0, 636.0, 635.0, 633.0, 633.0, 634.0, 635.0, 635.0, 635.0, 635.0, 634.0, 634.0, 634.0, 634.0, 633.0, 634.0, 634.0, 634.0, 634.0, 635.0, 638.0, 640.0, 633.0, 632.0, 634.0, 636.0, 636.0, 637.0, 634.0, 636.0, 636.0, 639.0, 641.0, 640.0, 636.0, 636.0, 636.0, 637.0, 636.0, 641.0, 638.0, 637.0, 641.0, 638.0, 635.0, 635.0, 635.0, 635.0, 635.0, 635.0, 635.0, 634.0, 634.0, 633.0, 633.0, 635.0, 634.0, 635.0, 635.0, 635.0, 639.0, 637.0, 635.0, 634.0, 634.0, 633.0, 633.0, 633.0, 635.0, 634.0, 636.0, 635.0, 635.0, 635.0, 637.0, 636.0, 637.0, 638.0, 641.0, 645.0, 640.0, 640.0, 638.0, 636.0, 636.0, 635.0, 636.0, 636.0, 636.0, 636.0, 638.0, 637.0, 638.0, 636.0, 636.0, 635.0, 635.0, 637.0, 636.0, 636.0, 637.0, 637.0, 639.0, 640.0, 638.0, 636.0, 639.0, 640.0, 639.0, 636.0, 637.0, 637.0, 634.0, 634.0, 634.0, 634.0, 636.0, 635.0, 634.0, 637.0, 635.0, 635.0, 639.0, 636.0, 634.0, 634.0, 635.0, 635.0, 634.0, 634.0, 635.0, 635.0, 636.0, 637.0, 637.0, 636.0, 636.0, 636.0, 639.0, 636.0, 635.0, 636.0, 637.0, 640.0, 639.0, 636.0, 635.0, 632.0, 633.0, 633.0, 632.0, 633.0, 633.0, 633.0, 633.0, 633.0, 633.0, 636.0, 635.0, 636.0, 624.0, 626.0, 633.0, 632.0, 635.0, 635.0, 635.0, 636.0, 637.0, 634.0, 631.0, 630.0, 631.0, 632.0, 632.0, 634.0, 635.0, 634.0, 634.0, 635.0, 636.0, 637.0, 639.0, 642.0],
      "WindowWidth": [1350.0, 1343.0, 1342.0, 1342.0, 1342.0, 1344.0, 1340.0, 1344.0, 1344.0, 1341.0, 1340.0, 1339.0, 1339.0, 1339.0, 1339.0, 1337.0, 1337.0, 1335.0, 1343.0, 1336.0, 1336.0, 1336.0, 1340.0, 1340.0, 1335.0, 1335.0, 1336.0, 1339.0, 1342.0, 1343.0, 1342.0, 1344.0, 1344.0, 1338.0, 1338.0, 1338.0, 1339.0, 1343.0, 1344.0, 1345.0, 1345.0, 1334.0, 1336.0, 1341.0, 1334.0, 1333.0, 1334.0, 1334.0, 1332.0, 1331.0, 1328.0, 1331.0, 1332.0, 1330.0, 1333.0, 1335.0, 1331.0, 1333.0, 1333.0, 1334.0, 1334.0, 1333.0, 1337.0, 1334.0, 1329.0, 1327.0, 1332.0, 1333.0, 1330.0, 1328.0, 1328.0, 1330.0, 1332.0, 1332.0, 1332.0, 1332.0, 1331.0, 1331.0, 1330.0, 1329.0, 1329.0, 1330.0, 1330.0, 1332.0, 1331.0, 1333.0, 1338.0, 1340.0, 1328.0, 1327.0, 1330.0, 1332.0, 1333.0, 1336.0, 1330.0, 1334.0, 1335.0, 1341.0, 1344.0, 1342.0, 1335.0, 1335.0, 1335.0, 1336.0, 1335.0, 1344.0, 1338.0, 1336.0, 1343.0, 1337.0, 1333.0, 1332.0, 1332.0, 1333.0, 1333.0, 1333.0, 1332.0, 1331.0, 1329.0, 1329.0, 1328.0, 1331.0, 1329.0, 1332.0, 1333.0, 1333.0, 1340.0, 1336.0, 1332.0, 1331.0, 1329.0, 1328.0, 1328.0, 1328.0, 1331.0, 1330.0, 1334.0, 1332.0, 1332.0, 1333.0, 1335.0, 1335.0, 1336.0, 1338.0, 1345.0, 1352.0, 1344.0, 1342.0, 1338.0, 1334.0, 1334.0, 1333.0, 1334.0, 1335.0, 1335.0, 1335.0, 1338.0, 1336.0, 1338.0, 1334.0, 1334.0, 1333.0, 1333.0, 1337.0, 1334.0, 1334.0, 1337.0, 1337.0, 1341.0, 1342.0, 1339.0, 1335.0, 1339.0, 1342.0, 1340.0, 1335.0, 1335.0, 1334.0, 1330.0, 1330.0, 1330.0, 1329.0, 1333.0, 1331.0, 1329.0, 1335.0, 1333.0, 1332.0, 1339.0, 1333.0, 1331.0, 1330.0, 1332.0, 1331.0, 1329.0, 1331.0, 1332.0, 1333.0, 1335.0, 1336.0, 1336.0, 1335.0, 1334.0, 1334.0, 1340.0, 1335.0, 1334.0, 1336.0, 1337.0, 1343.0, 1340.0, 1334.0, 1332.0, 1326.0, 1328.0, 1327.0, 1327.0, 1328.0, 1328.0, 1327.0, 1327.0, 1327.0, 1328.0, 1334.0, 1333.0, 1334.0, 1306.0, 1311.0, 1328.0, 1324.0, 1330.0, 1332.0, 1330.0, 1331.0, 1333.0, 1328.0, 1322.0, 1321.0, 1322.0, 1324.0, 1324.0, 1328.0, 1331.0, 1329.0, 1329.0, 1331.0, 1333.0, 1336.0, 1341.0, 1345.0]
    },
    "slices": {}
  }
}